   3.7500000000000001E-004   4.5503857723516379E-035
   7.5000000000000002E-004   2.9156031044173531E-033
   1.1250000000000001E-003   3.3223292436894153E-032
   1.5000000000000000E-003   1.8670607093075468E-031
   1.8749999999999999E-003   7.1230915767438508E-031
   2.2500000000000003E-003   2.1271070381538265E-030
   2.6250000000000002E-003   5.3640633447284170E-030
   3.0000000000000001E-003   1.1952629075647420E-029
   3.3750000000000000E-003   2.4232179157731835E-029
   3.7499999999999999E-003   4.5598287359199069E-029
   4.1250000000000002E-003   8.0781839559886791E-029
   4.5000000000000005E-003   1.3616098538649270E-028
   4.8750000000000000E-003   2.2010592822375068E-028
   5.2500000000000003E-003   3.4335655360858274E-028
   5.6249999999999998E-003   5.1943289602133899E-028
   6.0000000000000001E-003   7.6507844408624464E-028
   6.3750000000000005E-003   1.1007362841891915E-027
   6.7499999999999999E-003   1.5510580825356606E-027
   7.1250000000000003E-003   2.1454459056551971E-027
   7.4999999999999997E-003   2.9186268793681264E-027
   7.8750000000000001E-003   3.9112606862472486E-027
   8.2500000000000004E-003   5.1705799015720459E-027
   8.6250000000000007E-003   6.7510631677923409E-027
   9.0000000000000011E-003   8.7151412075501564E-027
   9.3749999999999997E-003   1.1133935675270745E-026
   9.7500000000000000E-003   1.4088030847281835E-026
   1.0125000000000000E-002   1.7668278150608494E-026
   1.0500000000000001E-002   2.1976633530321895E-026
   1.0875000000000001E-002   2.7127027655642675E-026
   1.1250000000000000E-002   3.3246268964602498E-026
   1.1625000000000000E-002   4.0474979547480394E-026
   1.2000000000000000E-002   4.8968563868991467E-026
   1.2375000000000001E-002   5.8898210329164962E-026
   1.2750000000000001E-002   7.0451925663148813E-026
   1.3125000000000000E-002   8.3835602179560984E-026
   1.3500000000000000E-002   9.9274117838039405E-026
   1.3875000000000000E-002   1.1701246916545767E-025
   1.4250000000000001E-002   1.3731693701100529E-025
   1.4625000000000001E-002   1.6047628514056405E-025
   1.4999999999999999E-002   1.8680299166959467E-025
   1.5375000000000000E-002   2.1663451333536615E-025
   1.5750000000000000E-002   2.5033458260825113E-025
   1.6125000000000000E-002   2.8829453764195172E-025
   1.6500000000000001E-002   3.3093468506296989E-025
   1.6875000000000001E-002   3.7870569559919315E-025
   1.7250000000000001E-002   4.3209003254762284E-025
   1.7625000000000002E-002   4.9160341308208405E-025
   1.8000000000000002E-002   5.5779630239880076E-025
   1.8374999999999999E-002   6.3125544070248474E-025
   1.8749999999999999E-002   7.1260540303183844E-025
   1.9125000000000000E-002   8.0251019192360225E-025
   1.9500000000000000E-002   9.0167486291701400E-025
   1.9875000000000000E-002   1.0108471828973047E-024
   2.0250000000000001E-002   1.1308193212790038E-024
   2.0625000000000001E-002   1.2624295740283569E-024
   2.1000000000000001E-002   1.4065641205261908E-024
   2.1375000000000002E-002   1.5641588132703455E-024
   2.1750000000000002E-002   1.7362010004173728E-024
   2.2124999999999999E-002   1.9237313811638678E-024
   2.2499999999999999E-002   2.1278458939690244E-024
   2.2875000000000000E-002   2.3496976376182209E-024
   2.3250000000000000E-002   2.5904988251203803E-024
   2.3625000000000000E-002   2.8515227704513650E-024
   2.4000000000000000E-002   3.1341059081398607E-024
   2.4375000000000001E-002   3.4396498456842211E-024
   2.4750000000000001E-002   3.7696234488164515E-024
   2.5125000000000001E-002   4.1255649596065854E-024
   2.5500000000000002E-002   4.5090841474022517E-024
   2.5875000000000002E-002   4.9218644926177468E-024
   2.6249999999999999E-002   5.3656654033501029E-024
   2.6624999999999999E-002   5.8423244648518083E-024
   2.7000000000000000E-002   6.3537597218294579E-024
   2.7375000000000000E-002   6.9019719935957026E-024
   2.7750000000000000E-002   7.4890472220458901E-024
   2.8125000000000001E-002   8.1171588524994730E-024
   2.8500000000000001E-002   8.7885702473559829E-024
   2.8875000000000001E-002   9.5056371326074818E-024
   2.9250000000000002E-002   1.0270810077198364E-023
   2.9625000000000002E-002   1.1086637005199040E-023
   2.9999999999999999E-002   1.1955765740856156E-023
   3.0374999999999999E-002   1.2880946586455618E-023
   3.0750000000000000E-002   1.3865034933040030E-023
   3.1125000000000000E-002   1.4910993903967842E-023
   3.1500000000000000E-002   1.6021897031312930E-023
   3.1875000000000001E-002   1.7200930965095059E-023
   3.2250000000000001E-002   1.8451398215365673E-023
   3.2625000000000001E-002   1.9776719927151212E-023
   3.3000000000000002E-002   2.1180438688173878E-023
   3.3375000000000002E-002   2.2666221369499197E-023
   3.3750000000000002E-002   2.4237861998971982E-023
   3.4125000000000003E-002   2.5899284667497579E-023
   3.4500000000000003E-002   2.7654546468187812E-023
   3.4875000000000003E-002   2.9507840468328208E-023
   3.5250000000000004E-002   3.1463498714201546E-023
   3.5625000000000004E-002   3.3525995268734506E-023
   3.6000000000000004E-002   3.5699949282029271E-023
   3.6374999999999998E-002   3.7990128094668408E-023
   3.6749999999999998E-002   4.0401450373938538E-023
   3.7124999999999998E-002   4.2938989282834043E-023
   3.7499999999999999E-002   4.5607975681968853E-023
   3.7874999999999999E-002   4.8413801364231987E-023
   3.8249999999999999E-002   5.1362022322398558E-023
   3.8625000000000000E-002   5.4458362049531887E-023
   3.9000000000000000E-002   5.7708714872177269E-023
   3.9375000000000000E-002   6.1119149316515392E-023
   3.9750000000000001E-002   6.4695911507253158E-023
   4.0125000000000001E-002   6.8445428599432015E-023
   4.0500000000000001E-002   7.2374312242998064E-023
   4.0875000000000002E-002   7.6489362080318368E-023
   4.1250000000000002E-002   8.0797569276471584E-023
   4.1625000000000002E-002   8.5306120082365411E-023
   4.2000000000000003E-002   9.0022399430810381E-023
   4.2375000000000003E-002   9.4953994565260940E-023
   4.2750000000000003E-002   1.0010869870159378E-022
   4.3125000000000004E-002   1.0549451472254492E-022
   4.3500000000000004E-002   1.1111965890515869E-022
   4.3875000000000004E-002   1.1699256468097164E-022
   4.4249999999999998E-002   1.2312188642908966E-022
   4.4624999999999998E-002   1.2951650330205368E-022
   4.4999999999999998E-002   1.3618552308462986E-022
   4.5374999999999999E-002   1.4313828608543891E-022
   4.5749999999999999E-002   1.5038436906132626E-022
   4.6124999999999999E-002   1.5793358917466120E-022
   4.6500000000000000E-002   1.6579600798350638E-022
   4.6875000000000000E-002   1.7398193546462086E-022
   4.7250000000000000E-002   1.8250193406916856E-022
   4.7625000000000001E-002   1.9136682281150156E-022
   4.8000000000000001E-002   2.0058768139067598E-022
   4.8375000000000001E-002   2.1017585434469874E-022
   4.8750000000000002E-002   2.2014295523785588E-022
   4.9125000000000002E-002   2.3050087088066983E-022
   4.9500000000000002E-002   2.4126176558295526E-022
   4.9875000000000003E-002   2.5243808543939519E-022
   5.0250000000000003E-002   2.6404256264813113E-022
   5.0625000000000003E-002   2.7608821986242659E-022
   5.1000000000000004E-002   2.8858837457465261E-022
   5.1375000000000004E-002   3.0155664353367053E-022
   5.1750000000000004E-002   3.1500694719468342E-022
   5.2124999999999998E-002   3.2895351420205773E-022
   5.2499999999999998E-002   3.4341088590509333E-022
   5.2874999999999998E-002   3.5839392090644045E-022
   5.3249999999999999E-002   3.7391779964355554E-022
   5.3624999999999999E-002   3.8999802900287244E-022
   5.3999999999999999E-002   4.0665044696682353E-022
   5.4375000000000000E-002   4.2389122729390664E-022
   5.4750000000000000E-002   4.4173688423129789E-022
   5.5125000000000000E-002   4.6020427726046914E-022
   5.5500000000000001E-002   4.7931061587586757E-022
   5.5875000000000001E-002   4.9907346439579902E-022
   5.6250000000000001E-002   5.1951074680708079E-022
   5.6625000000000002E-002   5.4064075164167632E-022
   5.7000000000000002E-002   5.6248213688671302E-022
   5.7375000000000002E-002   5.8505393492709710E-022
   5.7750000000000003E-002   6.0837555752121600E-022
   5.8125000000000003E-002   6.3246680080915306E-022
   5.8500000000000003E-002   6.5734785035409265E-022
   5.8875000000000004E-002   6.8303928621643300E-022
   5.9250000000000004E-002   7.0956208806050130E-022
   5.9625000000000004E-002   7.3693764029472372E-022
   5.9999999999999998E-002   7.6518773724395029E-022
   6.0374999999999998E-002   7.9433458835506060E-022
   6.0749999999999998E-002   8.2440082343554291E-022
   6.1124999999999999E-002   8.5540949792422838E-022
   6.1499999999999999E-002   8.8738409819579363E-022
   6.1874999999999999E-002   9.2034854689752608E-022
   6.2250000000000000E-002   9.5432720831882489E-022
   6.2625000000000000E-002   9.8934489379440394E-022
   6.3000000000000000E-002   1.0254268671390679E-021
   6.3375000000000001E-002   1.0625988501164541E-021
   6.3750000000000001E-002   1.1008870279399820E-021
   6.4125000000000001E-002   1.1403180548071612E-021
   6.4500000000000002E-002   1.1809190594662070E-021
   6.4875000000000002E-002   1.2227176508155055E-021
   6.5250000000000002E-002   1.2657419235371275E-021
   6.5625000000000003E-002   1.3100204637608010E-021
   6.6000000000000003E-002   1.3555823547638918E-021
   6.6375000000000003E-002   1.4024571827011869E-021
   6.6750000000000004E-002   1.4506750423690523E-021
   6.7125000000000004E-002   1.5002665430033303E-021
   6.7500000000000004E-002   1.5512628141075314E-021
   6.7875000000000005E-002   1.6036955113166580E-021
   6.8250000000000005E-002   1.6575968222917613E-021
   6.8625000000000005E-002   1.7129994726483424E-021
   6.9000000000000006E-002   1.7699367319180639E-021
   6.9375000000000006E-002   1.8284424195419361E-021
   6.9750000000000006E-002   1.8885509108973848E-021
   7.0125000000000007E-002   1.9502971433583919E-021
   7.0500000000000007E-002   2.0137166223872684E-021
   7.0875000000000007E-002   2.0788454276600879E-021
   7.1250000000000008E-002   2.1457202192261454E-021
   7.1625000000000008E-002   2.2143782436971792E-021
   7.2000000000000008E-002   2.2848573404726961E-021
   7.2374999999999995E-002   2.3571959479962721E-021
   7.2749999999999995E-002   2.4314331100449589E-021
   7.3124999999999996E-002   2.5076084820529779E-021
   7.3499999999999996E-002   2.5857623374652195E-021
   7.3874999999999996E-002   2.6659355741268321E-021
   7.4249999999999997E-002   2.7481697207042163E-021
   7.4624999999999997E-002   2.8325069431383567E-021
   7.4999999999999997E-002   2.9189900511320147E-021
   7.5374999999999998E-002   3.0076625046695443E-021
   7.5749999999999998E-002   3.0985684205688867E-021
   7.6124999999999998E-002   3.1917525790673019E-021
   7.6499999999999999E-002   3.2872604304393635E-021
   7.6874999999999999E-002   3.3851381016488491E-021
   7.7249999999999999E-002   3.4854324030314933E-021
   7.7625000000000000E-002   3.5881908350120696E-021
   7.8000000000000000E-002   3.6934615948554351E-021
   7.8375000000000000E-002   3.8012935834467377E-021
   7.8750000000000001E-002   3.9117364121084999E-021
   7.9125000000000001E-002   4.0248404094483587E-021
   7.9500000000000001E-002   4.1406566282403523E-021
   7.9875000000000002E-002   4.2592368523376965E-021
   8.0250000000000002E-002   4.3806336036221605E-021
   8.0625000000000002E-002   4.5049001489811944E-021
   8.1000000000000003E-002   4.6320905073213130E-021
   8.1375000000000003E-002   4.7622594566141491E-021
   8.1750000000000003E-002   4.8954625409738679E-021
   8.2125000000000004E-002   5.0317560777683574E-021
   8.2500000000000004E-002   5.1711971647639006E-021
   8.2875000000000004E-002   5.3138436873015865E-021
   8.3250000000000005E-002   5.4597543255067511E-021
   8.3625000000000005E-002   5.6089885615317889E-021
   8.4000000000000005E-002   5.7616066868316879E-021
   8.4375000000000006E-002   5.9176698094724818E-021
   8.4750000000000006E-002   6.0772398614709300E-021
   8.5125000000000006E-002   6.2403796061714484E-021
   8.5500000000000007E-002   6.4071526456502078E-021
   8.5875000000000007E-002   6.5776234281561960E-021
   8.6250000000000007E-002   6.7518572555829710E-021
   8.6625000000000008E-002   6.9299202909758634E-021
   8.7000000000000008E-002   7.1118795660682868E-021
   8.7375000000000008E-002   7.2978029888537749E-021
   8.7750000000000009E-002   7.4877593511903598E-021
   8.8124999999999995E-002   7.6818183364373520E-021
   8.8499999999999995E-002   7.8800505271250108E-021
   8.8874999999999996E-002   8.0825274126568136E-021
   8.9249999999999996E-002   8.2893213970449532E-021
   8.9624999999999996E-002   8.5005058066793982E-021
   8.9999999999999997E-002   8.7161548981299161E-021
   9.0374999999999997E-002   8.9363438659774750E-021
   9.0749999999999997E-002   9.1611488506827987E-021
   9.1124999999999998E-002   9.3906469464881261E-021
   9.1499999999999998E-002   9.6249162093469559E-021
   9.1874999999999998E-002   9.8640356648893103E-021
   9.2249999999999999E-002   1.0108085316423529E-020
   9.2624999999999999E-002   1.0357146152965917E-020
   9.2999999999999999E-002   1.0611300157301899E-020
   9.3375000000000000E-002   1.0870630314089636E-020
   9.3750000000000000E-002   1.1135220617982445E-020
   9.4125000000000000E-002   1.1405156081797642E-020
   9.4500000000000001E-002   1.1680522744708459E-020
   9.4875000000000001E-002   1.1961407680475267E-020
   9.5250000000000001E-002   1.2247899005704956E-020
   9.5625000000000002E-002   1.2540085888144587E-020
   9.6000000000000002E-002   1.2838058555011717E-020
   9.6375000000000002E-002   1.3141908301352240E-020
   9.6750000000000003E-002   1.3451727498431913E-020
   9.7125000000000003E-002   1.3767609602164674E-020
   9.7500000000000003E-002   1.4089649161569913E-020
   9.7875000000000004E-002   1.4417941827266183E-020
   9.8250000000000004E-002   1.4752584359988077E-020
   9.8625000000000004E-002   1.5093674639155907E-020
   9.9000000000000005E-002   1.5441311671454390E-020
   9.9375000000000005E-002   1.5795595599462994E-020
   9.9750000000000005E-002   1.6156627710305911E-020
  0.10012500000000001        1.6524510444344538E-020
  0.10050000000000001        1.6899347403900405E-020
  0.10087500000000001        1.7281243362004991E-020
  0.10125000000000001        1.7670304271189086E-020
  0.10162500000000001        1.8066637272306352E-020
  0.10200000000000001        1.8470350703380821E-020
  0.10237500000000001        1.8881554108497121E-020
  0.10275000000000001        1.9300358246714497E-020
  0.10312500000000001        1.9726875101026516E-020
  0.10350000000000001        2.0161217887338345E-020
  0.10387500000000001        2.0603501063484352E-020
  0.10425000000000000        2.1053840338284310E-020
  0.10462500000000000        2.1512352680620354E-020
  0.10500000000000000        2.1979156328556700E-020
  0.10537500000000000        2.2454370798487117E-020
  0.10575000000000000        2.2938116894319575E-020
  0.10612500000000000        2.3430516716683220E-020
  0.10650000000000000        2.3931693672186080E-020
  0.10687500000000000        2.4441772482689025E-020
  0.10725000000000000        2.4960879194619895E-020
  0.10762500000000000        2.5489141188320829E-020
  0.10800000000000000        2.6026687187429326E-020
  0.10837500000000000        2.6573647268283391E-020
  0.10875000000000000        2.7130152869373059E-020
  0.10912500000000000        2.7696336800820192E-020
  0.10950000000000000        2.8272333253876770E-020
  0.10987500000000000        2.8858277810481606E-020
  0.11025000000000000        2.9454307452833013E-020
  0.11062500000000000        3.0060560572990542E-020
  0.11100000000000000        3.0677176982526966E-020
  0.11137500000000000        3.1304297922201537E-020
  0.11175000000000000        3.1942066071659357E-020
  0.11212500000000000        3.2590625559180929E-020
  0.11250000000000000        3.3250121971456025E-020
  0.11287500000000000        3.3920702363389256E-020
  0.11325000000000000        3.4602515267929837E-020
  0.11362500000000000        3.5295710705956111E-020
  0.11400000000000000        3.6000440196176256E-020
  0.11437500000000000        3.6716856765069421E-020
  0.11475000000000000        3.7445114956846390E-020
  0.11512500000000001        3.8185370843465289E-020
  0.11550000000000001        3.8937782034666193E-020
  0.11587500000000001        3.9702507688027861E-020
  0.11625000000000001        4.0479708519093189E-020
  0.11662500000000001        4.1269546811484046E-020
  0.11700000000000001        4.2072186427079151E-020
  0.11737500000000001        4.2887792816212556E-020
  0.11775000000000001        4.3716533027906846E-020
  0.11812500000000001        4.4558575720149291E-020
  0.11850000000000001        4.5414091170171040E-020
  0.11887500000000001        4.6283251284802461E-020
  0.11925000000000001        4.7166229610826659E-020
  0.11962500000000001        4.8063201345375557E-020
  0.12000000000000000        4.8974343346371501E-020
  0.12037500000000000        4.9899834142985076E-020
  0.12075000000000000        5.0839853946126393E-020
  0.12112500000000000        5.1794584658991604E-020
  0.12150000000000000        5.2764209887604408E-020
  0.12187500000000000        5.3748914951428473E-020
  0.12225000000000000        5.4748886893993034E-020
  0.12262500000000000        5.5764314493552056E-020
  0.12300000000000000        5.6795388273766556E-020
  0.12337500000000000        5.7842300514460053E-020
  0.12375000000000000        5.8905245262352286E-020
  0.12412500000000000        5.9984418341866847E-020
  0.12450000000000000        6.1080017365953100E-020
  0.12487500000000000        6.2192241746944803E-020
  0.12525000000000000        6.3321292707446319E-020
  0.12562500000000001        6.4467373291268383E-020
  0.12600000000000000        6.5630688374380143E-020
  0.12637500000000002        6.6811444675898759E-020
  0.12675000000000000        6.8009850769108320E-020
  0.12712500000000002        6.9226117092534580E-020
  0.12750000000000000        7.0460455961005430E-020
  0.12787500000000002        7.1713081576796444E-020
  0.12825000000000000        7.2984210040779696E-020
  0.12862499999999999        7.4274059363600996E-020
  0.12900000000000000        7.5582849476917685E-020
  0.12937499999999999        7.6910802244640081E-020
  0.12975000000000000        7.8258141474216151E-020
  0.13012499999999999        7.9625092927969391E-020
  0.13050000000000000        8.1011884334420993E-020
  0.13087499999999999        8.2418745399705557E-020
  0.13125000000000001        8.3845907818968595E-020
  0.13162499999999999        8.5293605287833920E-020
  0.13200000000000001        8.6762073513857559E-020
  0.13237499999999999        8.8251550228087772E-020
  0.13275000000000001        8.9762275196578758E-020
  0.13312499999999999        9.1294490231990867E-020
  0.13350000000000001        9.2848439205196699E-020
  0.13387499999999999        9.4424368056932438E-020
  0.13425000000000001        9.6022524809498407E-020
  0.13462499999999999        9.7643159578434126E-020
  0.13500000000000001        9.9286524584303597E-020
  0.13537500000000000        1.0095287416444443E-019
  0.13575000000000001        1.0264246478480476E-019
  0.13612500000000000        1.0435555505177332E-019
  0.13650000000000001        1.0609240572407132E-019
  0.13687500000000000        1.0785327972464449E-019
  0.13725000000000001        1.0963844215263466E-019
  0.13762500000000000        1.1144816029532377E-019
  0.13800000000000001        1.1328270364018238E-019
  0.13837500000000000        1.1514234388688193E-019
  0.13875000000000001        1.1702735495937418E-019
  0.13912500000000000        1.1893801301802931E-019
  0.13950000000000001        1.2087459647173445E-019
  0.13987500000000000        1.2283738599009593E-019
  0.14025000000000001        1.2482666451565675E-019
  0.14062500000000000        1.2684271727610126E-019
  0.14100000000000001        1.2888583179655257E-019
  0.14137500000000000        1.3095629791189051E-019
  0.14175000000000001        1.3305440777906264E-019
  0.14212500000000000        1.3518045588946378E-019
  0.14250000000000002        1.3733473908136513E-019
  0.14287500000000000        1.3951755655232129E-019
  0.14325000000000002        1.4172920987165639E-019
  0.14362500000000000        1.4397000299296882E-019
  0.14400000000000002        1.4624024226666343E-019
  0.14437500000000000        1.4854023645252020E-019
  0.14474999999999999        1.5087029673229346E-019
  0.14512500000000000        1.5323073672236882E-019
  0.14549999999999999        1.5562187248641170E-019
  0.14587500000000000        1.5804402254805301E-019
  0.14624999999999999        1.6049750790367502E-019
  0.14662500000000001        1.6298265203512467E-019
  0.14699999999999999        1.6549978092253477E-019
  0.14737500000000001        1.6804922305716883E-019
  0.14774999999999999        1.7063130945426848E-019
  0.14812500000000001        1.7324637366596912E-019
  0.14849999999999999        1.7589475179419261E-019
  0.14887500000000001        1.7857678250369050E-019
  0.14924999999999999        1.8129280703494490E-019
  0.14962500000000001        1.8404316921727846E-019
  0.14999999999999999        1.8682821548187372E-019
  0.15037500000000001        1.8964829487486494E-019
  0.15075000000000000        1.9250375907051861E-019
  0.15112500000000001        1.9539496238432750E-019
  0.15150000000000000        1.9832226178624975E-019
  0.15187500000000001        2.0128601691394617E-019
  0.15225000000000000        2.0428659008598512E-019
  0.15262500000000001        2.0732434631519990E-019
  0.15300000000000000        2.1039965332195560E-019
  0.15337500000000001        2.1351288154758751E-019
  0.15375000000000000        2.1666440416770158E-019
  0.15412500000000001        2.1985459710567933E-019
  0.15450000000000000        2.2308383904607195E-019
  0.15487500000000001        2.2635251144812634E-019
  0.15525000000000000        2.2966099855932837E-019
  0.15562500000000001        2.3300968742890292E-019
  0.15600000000000000        2.3639896792146404E-019
  0.15637500000000001        2.3982923273059433E-019
  0.15675000000000000        2.4330087739252171E-019
  0.15712500000000001        2.4681430029981024E-019
  0.15750000000000000        2.5036990271505967E-019
  0.15787500000000002        2.5396808878467573E-019
  0.15825000000000000        2.5760926555269309E-019
  0.15862500000000002        2.6129384297449988E-019
  0.15900000000000000        2.6502223393080606E-019
  0.15937500000000002        2.6879485424144143E-019
  0.15975000000000000        2.7261212267932332E-019
  0.16012499999999999        2.7647446098439521E-019
  0.16050000000000000        2.8038229387760649E-019
  0.16087499999999999        2.8433604907492492E-019
  0.16125000000000000        2.8833615730141731E-019
  0.16162499999999999        2.9238305230528563E-019
  0.16200000000000001        2.9647717087205351E-019
  0.16237499999999999        3.0061895283862469E-019
  0.16275000000000001        3.0480884110754715E-019
  0.16312499999999999        3.0904728166118107E-019
  0.16350000000000001        3.1333472357599655E-019
  0.16387499999999999        3.1767161903676246E-019
  0.16425000000000001        3.2205842335096415E-019
  0.16462499999999999        3.2649559496310903E-019
  0.16500000000000001        3.3098359546907946E-019
  0.16537499999999999        3.3552288963055766E-019
  0.16575000000000001        3.4011394538953100E-019
  0.16612499999999999        3.4475723388269344E-019
  0.16650000000000001        3.4945322945600152E-019
  0.16687500000000000        3.5420240967919732E-019
  0.16725000000000001        3.5900525536039254E-019
  0.16762500000000000        3.6386225056070541E-019
  0.16800000000000001        3.6877388260884997E-019
  0.16837500000000000        3.7374064211586704E-019
  0.16875000000000001        3.7876302298979509E-019
  0.16912500000000000        3.8384152245044484E-019
  0.16950000000000001        3.8897664104414546E-019
  0.16987500000000000        3.9416888265854802E-019
  0.17025000000000001        3.9941875453754137E-019
  0.17062500000000000        4.0472676729600828E-019
  0.17100000000000001        4.1009343493481945E-019
  0.17137500000000000        4.1551927485577132E-019
  0.17175000000000001        4.2100480787648621E-019
  0.17212500000000000        4.2655055824550815E-019
  0.17250000000000001        4.3215705365728421E-019
  0.17287500000000000        4.3782482526726704E-019
  0.17325000000000002        4.4355440770696442E-019
  0.17362500000000000        4.4934633909917505E-019
  0.17400000000000002        4.5520116107307117E-019
  0.17437500000000000        4.6111941877945725E-019
  0.17475000000000002        4.6710166090596088E-019
  0.17512500000000000        4.7314843969232280E-019
  0.17550000000000002        4.7926031094572373E-019
  0.17587500000000000        4.8543783405608036E-019
  0.17624999999999999        4.9168157201143816E-019
  0.17662500000000000        4.9799209141336465E-019
  0.17699999999999999        5.0436996249238414E-019
  0.17737500000000000        5.1081575912342455E-019
  0.17774999999999999        5.1733005884138599E-019
  0.17812500000000001        5.2391344285659488E-019
  0.17849999999999999        5.3056649607038375E-019
  0.17887500000000001        5.3728980709075794E-019
  0.17924999999999999        5.4408396824795593E-019
  0.17962500000000001        5.5094957561007213E-019
  0.17999999999999999        5.5788722899893207E-019
  0.18037500000000001        5.6489753200562453E-019
  0.18074999999999999        5.7198109200637141E-019
  0.18112500000000001        5.7913852017832803E-019
  0.18149999999999999        5.8637043151535085E-019
  0.18187500000000001        5.9367744484391543E-019
  0.18225000000000000        6.0106018283901188E-019
  0.18262500000000001        6.0851927204004388E-019
  0.18300000000000000        6.1605534286673013E-019
  0.18337500000000001        6.2366902963530973E-019
  0.18375000000000000        6.3136097057432154E-019
  0.18412500000000001        6.3913180784077796E-019
  0.18450000000000000        6.4698218753629823E-019
  0.18487500000000001        6.5491275972317029E-019
  0.18525000000000000        6.6292417844050623E-019
  0.18562500000000001        6.7101710172052744E-019
  0.18600000000000000        6.7919219160462893E-019
  0.18637500000000001        6.8745011415979698E-019
  0.18675000000000000        6.9579153949474579E-019
  0.18712500000000001        7.0421714177644747E-019
  0.18750000000000000        7.1272759924628073E-019
  0.18787500000000001        7.2132359423646636E-019
  0.18825000000000000        7.3000581318667320E-019
  0.18862500000000001        7.3877494666024116E-019
  0.18900000000000000        7.4763168936075764E-019
  0.18937500000000002        7.5657674014859184E-019
  0.18975000000000000        7.6561080205746119E-019
  0.19012500000000002        7.7473458231096820E-019
  0.19050000000000000        7.8394879233928867E-019
  0.19087500000000002        7.9325414779572533E-019
  0.19125000000000000        8.0265136857350961E-019
  0.19162500000000002        8.1214117882243771E-019
  0.19200000000000000        8.2172430696570655E-019
  0.19237499999999999        8.3140148571656773E-019
  0.19275000000000000        8.4117345209530366E-019
  0.19312499999999999        8.5104094744593353E-019
  0.19350000000000001        8.6100471745314603E-019
  0.19387499999999999        8.7106551215934081E-019
  0.19425000000000001        8.8122408598137283E-019
  0.19462499999999999        8.9148119772764911E-019
  0.19500000000000001        9.0183761061518227E-019
  0.19537499999999999        9.1229409228651674E-019
  0.19575000000000001        9.2285141482693565E-019
  0.19612499999999999        9.3351035478150118E-019
  0.19650000000000001        9.4427169317221720E-019
  0.19687499999999999        9.5513621551522175E-019
  0.19725000000000001        9.6610471183805348E-019
  0.19762500000000000        9.7717797669667257E-019
  0.19800000000000001        9.8835680919308437E-019
  0.19837500000000000        9.9964201299240157E-019
  0.19875000000000001        1.0110343963402656E-018
  0.19912500000000000        1.0225347720802617E-018
  0.19950000000000001        1.0341439576712392E-018
  0.19987500000000000        1.0458627752047943E-018
  0.20025000000000001        1.0576920514228884E-018
  0.20062500000000000        1.0696326177351422E-018
  0.20100000000000001        1.0816853102364246E-018
  0.20137500000000000        1.0938509697245841E-018
  0.20175000000000001        1.1061304417178206E-018
  0.20212500000000000        1.1185245764726621E-018
  0.20250000000000001        1.1310342290012120E-018
  0.20287500000000000        1.1436602590892352E-018
  0.20325000000000001        1.1564035313136652E-018
  0.20362500000000000        1.1692649150605433E-018
  0.20400000000000001        1.1822452845426379E-018
  0.20437500000000000        1.1953455188174526E-018
  0.20475000000000002        1.2085665018050282E-018
  0.20512500000000000        1.2219091223058447E-018
  0.20550000000000002        1.2353742740188209E-018
  0.20587500000000000        1.2489628555591253E-018
  0.20625000000000002        1.2626757704764929E-018
  0.20662500000000000        1.2765139272728670E-018
  0.20700000000000002        1.2904782394207222E-018
  0.20737500000000000        1.3045696253812526E-018
  0.20775000000000002        1.3187890086222476E-018
  0.20812500000000000        1.3331373176363150E-018
  0.20849999999999999        1.3476154859593741E-018
  0.20887500000000001        1.3622244521884703E-018
  0.20924999999999999        1.3769651600003560E-018
  0.20962500000000001        1.3918385581696551E-018
  0.20999999999999999        1.4068456005872866E-018
  0.21037500000000001        1.4219872462786029E-018
  0.21074999999999999        1.4372644594222660E-018
  0.21112500000000001        1.4526782093680907E-018
  0.21149999999999999        1.4682294706558966E-018
  0.21187500000000001        1.4839192230339959E-018
  0.21224999999999999        1.4997484514775505E-018
  0.21262500000000001        1.5157181462072034E-018
  0.21299999999999999        1.5318293027078648E-018
  0.21337500000000001        1.5480829217470005E-018
  0.21375000000000000        1.5644800093935453E-018
  0.21412500000000001        1.5810215770365784E-018
  0.21450000000000000        1.5977086414040578E-018
  0.21487500000000001        1.6145422245813312E-018
  0.21525000000000000        1.6315233540303764E-018
  0.21562500000000001        1.6486530626082901E-018
  0.21600000000000000        1.6659323885862535E-018
  0.21637500000000001        1.6833623756683779E-018
  0.21675000000000000        1.7009440730108756E-018
  0.21712500000000001        1.7186785352406924E-018
  0.21750000000000000        1.7365668224746279E-018
  0.21787500000000001        1.7546100003384587E-018
  0.21825000000000000        1.7728091399859046E-018
  0.21862500000000001        1.7911653181176991E-018
  0.21900000000000000        1.8096796170007996E-018
  0.21937500000000001        1.8283531244874790E-018
  0.21975000000000000        1.8471869340345728E-018
  0.22012500000000002        1.8661821447226191E-018
  0.22050000000000000        1.8853398612753166E-018
  0.22087500000000002        1.9046611940784886E-018
  0.22125000000000000        1.9241472591996725E-018
  0.22162500000000002        1.9437991784075706E-018
  0.22200000000000000        1.9636180791910236E-018
  0.22237500000000002        1.9836050947787849E-018
  0.22275000000000000        2.0037613641588223E-018
  0.22312500000000002        2.0240880320980376E-018
  0.22350000000000000        2.0445862491613889E-018
  0.22387500000000002        2.0652571717317957E-018
  0.22425000000000000        2.0861019620296396E-018
  0.22462499999999999        2.1071217881322469E-018
  0.22500000000000001        2.1283178239937742E-018
  0.22537499999999999        2.1496912494645921E-018
  0.22575000000000001        2.1712432503113305E-018
  0.22612499999999999        2.1929750182365406E-018
  0.22650000000000001        2.2148877508982343E-018
  0.22687499999999999        2.2369826519300792E-018
  0.22725000000000001        2.2592609309609479E-018
  0.22762499999999999        2.2817238036349040E-018
  0.22800000000000001        2.3043724916314163E-018
  0.22837499999999999        2.3272082226847159E-018
  0.22875000000000001        2.3502322306043032E-018
  0.22912500000000000        2.3734457552947273E-018
  0.22950000000000001        2.3968500427755678E-018
  0.22987500000000000        2.4204463452018036E-018
  0.23025000000000001        2.4442359208837456E-018
  0.23062500000000000        2.4682200343069348E-018
  0.23100000000000001        2.4923999561529780E-018
  0.23137500000000000        2.5167769633190688E-018
  0.23175000000000001        2.5413523389387989E-018
  0.23212500000000000        2.5661273724019741E-018
  0.23250000000000001        2.5911033593752533E-018
  0.23287500000000000        2.6162816018224469E-018
  0.23325000000000001        2.6416634080245678E-018
  0.23362500000000000        2.6672500926008301E-018
  0.23400000000000001        2.6930429765286421E-018
  0.23437500000000000        2.7190433871642842E-018
  0.23475000000000001        2.7452526582632697E-018
  0.23512500000000000        2.7716721300011343E-018
  0.23550000000000001        2.7983031489935393E-018
  0.23587500000000000        2.8251470683178202E-018
  0.23625000000000002        2.8522052475324692E-018
  0.23662500000000000        2.8794790526985934E-018
  0.23700000000000002        2.9069698564003426E-018
  0.23737500000000000        2.9346790377658743E-018
  0.23775000000000002        2.9626079824877720E-018
  0.23812500000000000        2.9907580828441955E-018
  0.23850000000000002        3.0191307377194976E-018
  0.23887500000000000        3.0477273526253089E-018
  0.23925000000000002        3.0765493397212372E-018
  0.23962500000000000        3.1055981178359033E-018
  0.23999999999999999        3.1348751124879463E-018
  0.24037500000000001        3.1643817559070524E-018
  0.24074999999999999        3.1941194870548491E-018
  0.24112500000000001        3.2240897516461598E-018
  0.24149999999999999        3.2542940021700041E-018
  0.24187500000000001        3.2847336979107233E-018
  0.24224999999999999        3.3154103049693225E-018
  0.24262500000000001        3.3463252962845101E-018
  0.24299999999999999        3.3774801516537678E-018
  0.24337500000000001        3.4088763577552932E-018
  0.24374999999999999        3.4405154081684282E-018
  0.24412500000000001        3.4723988033956639E-018
  0.24450000000000000        3.5045280508835294E-018
  0.24487500000000001        3.5369046650446483E-018
  0.24525000000000000        3.5695301672783041E-018
  0.24562500000000001        3.6024060859926845E-018
  0.24600000000000000        3.6355339566260470E-018
  0.24637500000000001        3.6689153216681269E-018
  0.24675000000000000        3.7025517306821476E-018
  0.24712500000000001        3.7364447403258988E-018
  0.24750000000000000        3.7705959143736710E-018
  0.24787500000000001        3.8050068237379730E-018
  0.24825000000000000        3.8396790464909550E-018
  0.24862500000000001        3.8746141678865976E-018
  0.24900000000000000        3.9098137803819428E-018
  0.24937500000000001        3.9452794836594067E-018
  0.24975000000000000        3.9810128846483107E-018
  0.25012499999999999        4.0170155975463969E-018
  0.25050000000000000        4.0532892438429222E-018
  0.25087500000000001        4.0898354523393098E-018
  0.25125000000000003        4.1266558591715217E-018
  0.25162499999999999        4.1637521078324683E-018
  0.25200000000000000        4.2011258491936483E-018
  0.25237500000000002        4.2387787415272018E-018
  0.25275000000000003        4.2767124505282329E-018
  0.25312499999999999        4.3149286493366919E-018
  0.25350000000000000        4.3534290185597085E-018
  0.25387500000000002        4.3922152462938978E-018
  0.25425000000000003        4.4312890281473579E-018
  0.25462499999999999        4.4706520672618838E-018
  0.25500000000000000        4.5103060743355124E-018
  0.25537500000000002        4.5502527676447291E-018
  0.25575000000000003        4.5904938730669565E-018
  0.25612499999999999        4.6310311241025342E-018
  0.25650000000000001        4.6718662618979095E-018
  0.25687500000000002        4.7130010352673277E-018
  0.25724999999999998        4.7544372007155804E-018
  0.25762499999999999        4.7961765224610022E-018
  0.25800000000000001        4.8382207724571617E-018
  0.25837500000000002        4.8805717304163266E-018
  0.25874999999999998        4.9232311838314811E-018
  0.25912499999999999        4.9662009279990621E-018
  0.25950000000000001        5.0094827660421881E-018
  0.25987500000000002        5.0530785089327036E-018
  0.26024999999999998        5.0969899755143016E-018
  0.26062500000000000        5.1412189925252887E-018
  0.26100000000000001        5.1857673946213274E-018
  0.26137500000000002        5.2306370243983047E-018
  0.26174999999999998        5.2758297324154020E-018
  0.26212500000000000        5.3213473772176268E-018
  0.26250000000000001        5.3671918253593561E-018
  0.26287500000000003        5.4133649514265794E-018
  0.26324999999999998        5.4598686380607970E-018
  0.26362500000000000        5.5067047759811683E-018
  0.26400000000000001        5.5538752640085198E-018
  0.26437500000000003        5.6013820090875764E-018
  0.26474999999999999        5.6492269263110644E-018
  0.26512500000000000        5.6974119389418044E-018
  0.26550000000000001        5.7459389784369068E-018
  0.26587500000000003        5.7948099844705642E-018
  0.26624999999999999        5.8440269049572976E-018
  0.26662500000000000        5.8935916960754913E-018
  0.26700000000000002        5.9435063222905243E-018
  0.26737500000000003        5.9937727563787973E-018
  0.26774999999999999        6.0443929794501075E-018
  0.26812500000000000        6.0953689809716624E-018
  0.26850000000000002        6.1467027587920516E-018
  0.26887500000000003        6.1983963191636325E-018
  0.26924999999999999        6.2504516767671934E-018
  0.26962500000000000        6.3028708547348759E-018
  0.27000000000000002        6.3556558846740160E-018
  0.27037500000000003        6.4088088066908335E-018
  0.27074999999999999        6.4623316694140454E-018
  0.27112500000000000        6.5162265300184919E-018
  0.27150000000000002        6.5704954542489754E-018
  0.27187500000000003        6.6251405164444417E-018
  0.27224999999999999        6.6801637995611144E-018
  0.27262500000000001        6.7355673951965233E-018
  0.27300000000000002        6.7913534036139874E-018
  0.27337499999999998        6.8475239337656081E-018
  0.27374999999999999        6.9040811033169881E-018
  0.27412500000000001        6.9610270386705572E-018
  0.27450000000000002        7.0183638749906778E-018
  0.27487499999999998        7.0760937562260554E-018
  0.27524999999999999        7.1342188351353710E-018
  0.27562500000000001        7.1927412733107555E-018
  0.27600000000000002        7.2516632412015026E-018
  0.27637499999999998        7.3109869181390542E-018
  0.27675000000000000        7.3707144923608053E-018
  0.27712500000000001        7.4308481610341612E-018
  0.27750000000000002        7.4913901302815113E-018
  0.27787499999999998        7.5523426152036961E-018
  0.27825000000000000        7.6137078399050894E-018
  0.27862500000000001        7.6754880375174329E-018
  0.27900000000000003        7.7376854502244640E-018
  0.27937499999999998        7.8003023292865384E-018
  0.27975000000000000        7.8633409350648980E-018
  0.28012500000000001        7.9268035370460643E-018
  0.28050000000000003        7.9906924138667691E-018
  0.28087499999999999        8.0550098533381025E-018
  0.28125000000000000        8.1197581524704143E-018
  0.28162500000000001        8.1849396174984223E-018
  0.28200000000000003        8.2505565639043788E-018
  0.28237499999999999        8.3166113164443647E-018
  0.28275000000000000        8.3831062091724593E-018
  0.28312500000000002        8.4500435854654863E-018
  0.28350000000000003        8.5174257980476134E-018
  0.28387499999999999        8.5852552090154149E-018
  0.28425000000000000        8.6535341898630733E-018
  0.28462500000000002        8.7222651215068805E-018
  0.28500000000000003        8.7914503943098473E-018
  0.28537499999999999        8.8610924081077298E-018
  0.28575000000000000        8.9311935722332798E-018
  0.28612500000000002        9.0017563055409888E-018
  0.28650000000000003        9.0727830364332272E-018
  0.28687499999999999        9.1442762028842405E-018
  0.28725000000000001        9.2162382524661122E-018
  0.28762500000000002        9.2886716423736113E-018
  0.28800000000000003        9.3615788394490416E-018
  0.28837499999999999        9.4349623202083384E-018
  0.28875000000000001        9.5088245708653251E-018
  0.28912500000000002        9.5831680873583444E-018
  0.28949999999999998        9.6579953753736900E-018
  0.28987499999999999        9.7333089503735053E-018
  0.29025000000000001        9.8091113376185873E-018
  0.29062500000000002        9.8854050721955906E-018
  0.29099999999999998        9.9621926990419514E-018
  0.29137500000000000        1.0039476772971032E-017
  0.29175000000000001        1.0117259858698633E-017
  0.29212500000000002        1.0195544530867052E-017
  0.29249999999999998        1.0274333374072703E-017
  0.29287500000000000        1.0353628982889690E-017
  0.29325000000000001        1.0433433961896993E-017
  0.29362500000000002        1.0513750925703788E-017
  0.29399999999999998        1.0594582498974116E-017
  0.29437500000000000        1.0675931316454414E-017
  0.29475000000000001        1.0757800022998223E-017
  0.29512500000000003        1.0840191273592154E-017
  0.29549999999999998        1.0923107733381934E-017
  0.29587500000000000        1.1006552077698417E-017
  0.29625000000000001        1.1090526992083140E-017
  0.29662500000000003        1.1175035172314575E-017
  0.29699999999999999        1.1260079324434227E-017
  0.29737500000000000        1.1345662164772480E-017
  0.29775000000000001        1.1431786419974228E-017
  0.29812500000000003        1.1518454827026364E-017
  0.29849999999999999        1.1605670133282197E-017
  0.29887500000000000        1.1693435096488823E-017
  0.29925000000000002        1.1781752484813083E-017
  0.29962500000000003        1.1870625076867073E-017
  0.29999999999999999        1.1960055661735661E-017
  0.30037500000000000        1.2050047039001955E-017
  0.30075000000000002        1.2140602018773850E-017
  0.30112500000000003        1.2231723421709707E-017
  0.30149999999999999        1.2323414079046468E-017
  0.30187500000000000        1.2415676832624371E-017
  0.30225000000000002        1.2508514534914388E-017
  0.30262500000000003        1.2601930049044108E-017
  0.30299999999999999        1.2695926248824588E-017
  0.30337500000000001        1.2790506018777589E-017
  0.30375000000000002        1.2885672254160838E-017
  0.30412499999999998        1.2981427860995608E-017
  0.30449999999999999        1.3077775756092786E-017
  0.30487500000000001        1.3174718867080640E-017
  0.30525000000000002        1.3272260132429995E-017
  0.30562499999999998        1.3370402501482477E-017
  0.30599999999999999        1.3469148934476116E-017
  0.30637500000000001        1.3568502402572772E-017
  0.30675000000000002        1.3668465887885378E-017
  0.30712499999999998        1.3769042383504842E-017
  0.30750000000000000        1.3870234893524982E-017
  0.30787500000000001        1.3972046433072464E-017
  0.30825000000000002        1.4074480028331752E-017
  0.30862499999999998        1.4177538716573190E-017
  0.30900000000000000        1.4281225546179541E-017
  0.30937500000000001        1.4385543576672674E-017
  0.30975000000000003        1.4490495878742274E-017
  0.31012499999999998        1.4596085534270490E-017
  0.31050000000000000        1.4702315636362570E-017
  0.31087500000000001        1.4809189289371070E-017
  0.31125000000000003        1.4916709608923366E-017
  0.31162499999999999        1.5024879721951033E-017
  0.31200000000000000        1.5133702766715861E-017
  0.31237500000000001        1.5243181892836699E-017
  0.31275000000000003        1.5353320261317523E-017
  0.31312499999999999        1.5464121044574870E-017
  0.31350000000000000        1.5575587426465503E-017
  0.31387500000000002        1.5687722602313102E-017
  0.31425000000000003        1.5800529778936623E-017
  0.31462499999999999        1.5914012174677418E-017
  0.31500000000000000        1.6028173019427365E-017
  0.31537500000000002        1.6143015554655604E-017
  0.31575000000000003        1.6258543033436380E-017
  0.31612499999999999        1.6374758720478001E-017
  0.31650000000000000        1.6491665892148691E-017
  0.31687500000000002        1.6609267836505795E-017
  0.31725000000000003        1.6727567853322902E-017
  0.31762499999999999        1.6846569254117975E-017
  0.31800000000000000        1.6966275362181126E-017
  0.31837500000000002        1.7086689512601592E-017
  0.31875000000000003        1.7207815052298063E-017
  0.31912499999999999        1.7329655340043337E-017
  0.31950000000000001        1.7452213746495452E-017
  0.31987500000000002        1.7575493654224109E-017
  0.32024999999999998        1.7699498457738126E-017
  0.32062499999999999        1.7824231563515041E-017
  0.32100000000000001        1.7949696390028712E-017
  0.32137500000000002        1.8075896367776966E-017
  0.32174999999999998        1.8202834939310767E-017
  0.32212499999999999        1.8330515559260498E-017
  0.32250000000000001        1.8458941694367223E-017
  0.32287500000000002        1.8588116823507946E-017
  0.32324999999999998        1.8718044437726056E-017
  0.32362500000000000        1.8848728040259084E-017
  0.32400000000000001        1.8980171146566486E-017
  0.32437500000000002        1.9112377284358432E-017
  0.32474999999999998        1.9245349993624803E-017
  0.32512500000000000        1.9379092826663532E-017
  0.32550000000000001        1.9513609348108005E-017
  0.32587500000000003        1.9648903134956715E-017
  0.32624999999999998        1.9784977776602399E-017
  0.32662500000000000        1.9921836874858517E-017
  0.32700000000000001        2.0059484043990266E-017
  0.32737500000000003        2.0197922910742289E-017
  0.32774999999999999        2.0337157114367138E-017
  0.32812500000000000        2.0477190306653132E-017
  0.32850000000000001        2.0618026151956623E-017
  0.32887500000000003        2.0759668327226720E-017
  0.32924999999999999        2.0902120522036385E-017
  0.32962500000000000        2.1045386438611715E-017
  0.33000000000000002        2.1189469791858199E-017
  0.33037500000000003        2.1334374309392809E-017
  0.33074999999999999        2.1480103731571525E-017
  0.33112500000000000        2.1626661811518310E-017
  0.33150000000000002        2.1774052315154450E-017
  0.33187500000000003        2.1922279021227035E-017
  0.33224999999999999        2.2071345721339994E-017
  0.33262500000000000        2.2221256219979518E-017
  0.33300000000000002        2.2372014334548681E-017
  0.33337500000000003        2.2523623895390681E-017
  0.33374999999999999        2.2676088745822508E-017
  0.33412500000000001        2.2829412742162515E-017
  0.33450000000000002        2.2983599753759849E-017
  0.33487500000000003        2.3138653663023981E-017
  0.33524999999999999        2.3294578365453306E-017
  0.33562500000000001        2.3451377769666646E-017
  0.33600000000000002        2.3609055797430212E-017
  0.33637499999999998        2.3767616383688523E-017
  0.33674999999999999        2.3927063476594286E-017
  0.33712500000000001        2.4087401037536062E-017
  0.33750000000000002        2.4248633041169375E-017
  0.33787499999999998        2.4410763475447756E-017
  0.33825000000000000        2.4573796341647883E-017
  0.33862500000000001        2.4737735654403253E-017
  0.33900000000000002        2.4902585441734511E-017
  0.33937499999999998        2.5068349745074645E-017
  0.33975000000000000        2.5235032619303258E-017
  0.34012500000000001        2.5402638132773777E-017
  0.34050000000000002        2.5571170367345081E-017
  0.34087499999999998        2.5740633418409625E-017
  0.34125000000000000        2.5911031394924599E-017
  0.34162500000000001        2.6082368419441897E-017
  0.34200000000000003        2.6254648628137482E-017
  0.34237499999999998        2.6427876170840645E-017
  0.34275000000000000        2.6602055211066696E-017
  0.34312500000000001        2.6777189926045546E-017
  0.34350000000000003        2.6953284506749841E-017
  0.34387499999999999        2.7130343157928280E-017
  0.34425000000000000        2.7308370098134868E-017
  0.34462500000000001        2.7487369559757541E-017
  0.34500000000000003        2.7667345789050868E-017
  0.34537499999999999        2.7848303046164374E-017
  0.34575000000000000        2.8030245605174097E-017
  0.34612500000000002        2.8213177754111377E-017
  0.34650000000000003        2.8397103794996768E-017
  0.34687499999999999        2.8582028043864909E-017
  0.34725000000000000        2.8767954830800197E-017
  0.34762500000000002        2.8954888499965367E-017
  0.34800000000000003        2.9142833409629679E-017
  0.34837499999999999        2.9331793932203250E-017
  0.34875000000000000        2.9521774454266264E-017
  0.34912500000000002        2.9712779376598262E-017
  0.34950000000000003        2.9904813114210385E-017
  0.34987499999999999        3.0097880096375129E-017
  0.35025000000000001        3.0291984766658200E-017
  0.35062500000000002        3.0487131582947474E-017
  0.35100000000000003        3.0683325017486993E-017
  0.35137499999999999        3.0880569556901986E-017
  0.35175000000000001        3.1078869702237023E-017
  0.35212500000000002        3.1278229968980558E-017
  0.35249999999999998        3.1478654887100856E-017
  0.35287499999999999        3.1680149001072482E-017
  0.35325000000000001        3.1882716869909860E-017
  0.35362500000000002        3.2086363067200256E-017
  0.35399999999999998        3.2291092181128497E-017
  0.35437500000000000        3.2496908814514567E-017
  0.35475000000000001        3.2703817584842314E-017
  0.35512500000000002        3.2911823124288706E-017
  0.35549999999999998        3.3120930079758591E-017
  0.35587500000000000        3.3331143112912070E-017
  0.35625000000000001        3.3542466900200104E-017
  0.35662500000000003        3.3754906132891211E-017
  0.35699999999999998        3.3968465517106193E-017
  0.35737500000000000        3.4183149773847853E-017
  0.35775000000000001        3.4398963639034348E-017
  0.35812500000000003        3.4615911863526085E-017
  0.35849999999999999        3.4833999213163384E-017
  0.35887500000000000        3.5053230468792508E-017
  0.35925000000000001        3.5273610426299849E-017
  0.35962500000000003        3.5495143896644401E-017
  0.35999999999999999        3.5717835705886284E-017
  0.36037500000000000        3.5941690695220936E-017
  0.36075000000000002        3.6166713721010179E-017
  0.36112500000000003        3.6392909654813097E-017
  0.36149999999999999        3.6620283383417313E-017
  0.36187500000000000        3.6848839808873864E-017
  0.36225000000000002        3.7078583848526427E-017
  0.36262500000000003        3.7309520435041397E-017
  0.36299999999999999        3.7541654516444998E-017
  0.36337500000000000        3.7774991056148590E-017
  0.36375000000000002        3.8009535032987726E-017
  0.36412500000000003        3.8245291441246849E-017
  0.36449999999999999        3.8482265290697873E-017
  0.36487500000000000        3.8720461606627992E-017
  0.36525000000000002        3.8959885429871888E-017
  0.36562500000000003        3.9200541816846045E-017
  0.36599999999999999        3.9442435839580463E-017
  0.36637500000000001        3.9685572585747461E-017
  0.36675000000000002        3.9929957158699524E-017
  0.36712500000000003        4.0175594677495701E-017
  0.36749999999999999        4.0422490276936579E-017
  0.36787500000000001        4.0670649107600432E-017
  0.36825000000000002        4.0920076335866591E-017
  0.36862499999999998        4.1170777143955963E-017
  0.36899999999999999        4.1422756729958924E-017
  0.36937500000000001        4.1676020307870294E-017
  0.36975000000000002        4.1930573107619804E-017
  0.37012499999999998        4.2186420375104924E-017
  0.37050000000000000        4.2443567372225417E-017
  0.37087500000000001        4.2702019376912947E-017
  0.37125000000000002        4.2961781683164625E-017
  0.37162499999999998        4.3222859601077489E-017
  0.37200000000000000        4.3485258456879831E-017
  0.37237500000000001        4.3748983592961873E-017
  0.37275000000000003        4.4014040367911469E-017
  0.37312499999999998        4.4280434156546170E-017
  0.37350000000000000        4.4548170349945243E-017
  0.37387500000000001        4.4817254355482449E-017
  0.37425000000000003        4.5087691596858885E-017
  0.37462499999999999        4.5359487514137545E-017
  0.37500000000000000        4.5632647563773234E-017