   2.5000000000000001E-004   3.9902519984430492E-036
   5.0000000000000001E-004   2.5581779935326380E-034
   7.5000000000000002E-004   2.9156031044173531E-033
   1.0000000000000000E-003   1.6386486999592324E-032
   1.2500000000000000E-003   6.2520285564124433E-032
   1.5000000000000000E-003   1.8670607093075468E-031
   1.7500000000000000E-003   4.7084167815948834E-031
   2.0000000000000000E-003   1.0491881383467869E-030
   2.2500000000000003E-003   2.1271070381538265E-030
   2.5000000000000001E-003   4.0026808060663166E-030
   2.7499999999999998E-003   7.0912159255732971E-030
   3.0000000000000001E-003   1.1952629075647420E-029
   3.2500000000000003E-003   1.9321716198896618E-029
   3.5000000000000001E-003   3.0141304497787760E-029
   3.7499999999999999E-003   4.5598287359199069E-029
   4.0000000000000001E-003   6.7162542207987161E-029
   4.2500000000000003E-003   9.6628731290411969E-029
   4.5000000000000005E-003   1.3616098538649270E-028
   4.7499999999999999E-003   1.8834047045451540E-028
   5.0000000000000001E-003   2.5621583720520311E-028
   5.2500000000000003E-003   3.4335655360858274E-028
   5.4999999999999997E-003   4.5390912033367708E-028
   5.7499999999999999E-003   5.9265616912003601E-028
   6.0000000000000001E-003   7.6507844408624464E-028
   6.2500000000000003E-003   9.7741966597015197E-028
   6.5000000000000006E-003   1.2367542793047846E-027
   6.7499999999999999E-003   1.5510580825356606E-027
   7.0000000000000001E-003   1.9292817410700781E-027
   7.2500000000000004E-003   2.3814271832676012E-027
   7.4999999999999997E-003   2.9186268793681264E-027
   7.7499999999999999E-003   3.5532260033641288E-027
   8.0000000000000002E-003   4.2988674778053878E-027
   8.2500000000000004E-003   5.1705799015720459E-027
   8.5000000000000006E-003   6.1848683605451125E-027
   8.7500000000000008E-003   7.3598081212769071E-027
   9.0000000000000011E-003   8.7151412075501564E-027
   9.2499999999999995E-003   1.0272375859965258E-026
   9.4999999999999998E-003   1.2054888878361346E-026
   9.7500000000000000E-003   1.4088030847281835E-026
   1.0000000000000000E-002   1.6399234244409849E-026
   1.0250000000000000E-002   1.9018124431818637E-026
   1.0500000000000001E-002   2.1976633530321895E-026
   1.0750000000000001E-002   2.5309117176734421E-026
   1.0999999999999999E-002   2.9052474164033540E-026
   1.1250000000000000E-002   3.3246268964602498E-026
   1.1500000000000000E-002   3.7932857136208414E-026
   1.1750000000000000E-002   4.3157513611334469E-026
   1.2000000000000000E-002   4.8968563868991467E-026
   1.2250000000000000E-002   5.5417517989858454E-026
   1.2500000000000001E-002   6.2559207594256060E-026
   1.2750000000000001E-002   7.0451925663148813E-026
   1.3000000000000001E-002   7.9157569241949098E-026
   1.3250000000000000E-002   8.8741785027539967E-026
   1.3500000000000000E-002   9.9274117838039405E-026
   1.3750000000000000E-002   1.1082816196581805E-025
   1.4000000000000000E-002   1.2348171541306763E-025
   1.4250000000000001E-002   1.3731693701100529E-025
   1.4500000000000001E-002   1.5242050642118881E-025
   1.4750000000000001E-002   1.6888378702060536E-025
   1.4999999999999999E-002   1.8680299166959467E-025
   1.5250000000000000E-002   2.0627935136193721E-025
   1.5500000000000000E-002   2.2741928675950398E-025
   1.5750000000000000E-002   2.5033458260825113E-025
   1.6000000000000000E-002   2.7514256503834016E-025
   1.6250000000000001E-002   3.0196628174677956E-025
   1.6500000000000001E-002   3.3093468506296989E-025
   1.6750000000000001E-002   3.6218281789798314E-025
   1.7000000000000001E-002   3.9585200257566092E-025
   1.7250000000000001E-002   4.3209003254762284E-025
   1.7500000000000002E-002   4.7105136699148018E-025
   1.7750000000000002E-002   5.1289732829046285E-025
   1.8000000000000002E-002   5.5779630239880076E-025
   1.8249999999999999E-002   6.0592394208667196E-025
   1.8499999999999999E-002   6.5746337307200569E-025
   1.8749999999999999E-002   7.1260540303183844E-025
   1.9000000000000000E-002   7.7154873349845150E-025
   1.9250000000000000E-002   8.3450017463901639E-025
   1.9500000000000000E-002   9.0167486291701400E-025
   1.9750000000000000E-002   9.7329648163681279E-025
   2.0000000000000000E-002   1.0495974843729235E-024
   2.0250000000000001E-002   1.1308193212790038E-024
   2.0500000000000001E-002   1.2172126682844551E-024
   2.0750000000000001E-002   1.3090376591694906E-024
   2.1000000000000001E-002   1.4065641205261908E-024
   2.1250000000000002E-002   1.5100718096020458E-024
   2.1500000000000002E-002   1.6198506550262256E-024
   2.1750000000000002E-002   1.7362010004173728E-024
   2.1999999999999999E-002   1.8594338508778695E-024
   2.2249999999999999E-002   1.9898711223691970E-024
   2.2499999999999999E-002   2.1278458939690244E-024
   2.2749999999999999E-002   2.2737026630157442E-024
   2.3000000000000000E-002   2.4277976031293627E-024
   2.3250000000000000E-002   2.5904988251203803E-024
   2.3500000000000000E-002   2.7621866407840201E-024
   2.3750000000000000E-002   2.9432538295695341E-024
   2.4000000000000000E-002   3.1341059081398607E-024
   2.4250000000000001E-002   3.3351614028129563E-024
   2.4500000000000001E-002   3.5468521248797585E-024
   2.4750000000000001E-002   3.7696234488164515E-024
   2.5000000000000001E-002   4.0039345933703522E-024
   2.5250000000000002E-002   4.2502589055350163E-024
   2.5500000000000002E-002   4.5090841474022517E-024
   2.5750000000000002E-002   4.7809127859045391E-024
   2.6000000000000002E-002   5.0662622854343639E-024
   2.6249999999999999E-002   5.3656654033501029E-024
   2.6499999999999999E-002   5.6796704883653756E-024
   2.6749999999999999E-002   6.0088417818205513E-024
   2.7000000000000000E-002   6.3537597218294579E-024
   2.7250000000000000E-002   6.7150212503316706E-024
   2.7500000000000000E-002   7.0932401229986726E-024
   2.7750000000000000E-002   7.4890472220458901E-024
   2.8000000000000001E-002   7.9030908719191039E-024
   2.8250000000000001E-002   8.3360371578543384E-024
   2.8500000000000001E-002   8.7885702473559829E-024
   2.8750000000000001E-002   9.2613927144980332E-024
   2.9000000000000001E-002   9.7552258671786912E-024
   2.9250000000000002E-002   1.0270810077198364E-023
   2.9500000000000002E-002   1.0808905113252545E-023
   2.9750000000000002E-002   1.1370290476812882E-023
   2.9999999999999999E-002   1.1955765740856156E-023
   3.0249999999999999E-002   1.2566150891524320E-023
   3.0499999999999999E-002   1.3202286672626073E-023
   3.0750000000000000E-002   1.3865034933040030E-023
   3.1000000000000000E-002   1.4555278977016663E-023
   3.1250000000000000E-002   1.5273923917324314E-023
   3.1500000000000000E-002   1.6021897031312930E-023
   3.1750000000000000E-002   1.6800148119847381E-023
   3.2000000000000001E-002   1.7609649869122428E-023
   3.2250000000000001E-002   1.8451398215365673E-023
   3.2500000000000001E-002   1.9326412712429815E-023
   3.2750000000000001E-002   2.0235736902244234E-023
   3.3000000000000002E-002   2.1180438688173878E-023
   3.3250000000000002E-002   2.2161610711254586E-023
   3.3500000000000002E-002   2.3180370729315885E-023
   3.3750000000000002E-002   2.4237861998971982E-023
   3.4000000000000002E-002   2.5335253660504910E-023
   3.4250000000000003E-002   2.6473741125638199E-023
   3.4500000000000003E-002   2.7654546468187812E-023
   3.4750000000000003E-002   2.8878918817594770E-023
   3.5000000000000003E-002   3.0148134755322922E-023
   3.5250000000000004E-002   3.1463498714201546E-023
   3.5500000000000004E-002   3.2826343380566390E-023
   3.5750000000000004E-002   3.4238030099348554E-023
   3.6000000000000004E-002   3.5699949282029271E-023
   3.6249999999999998E-002   3.7213520817440053E-023
   3.6499999999999998E-002   3.8780194485529448E-023
   3.6749999999999998E-002   4.0401450373938538E-023
   3.6999999999999998E-002   4.2078799297448065E-023
   3.7249999999999998E-002   4.3813783220414489E-023
   3.7499999999999999E-002   4.5607975681968853E-023
   3.7749999999999999E-002   4.7462982224173233E-023
   3.7999999999999999E-002   4.9380440823038666E-023
   3.8249999999999999E-002   5.1362022322398558E-023
   3.8500000000000000E-002   5.3409430870738676E-023
   3.8750000000000000E-002   5.5524404360787266E-023
   3.9000000000000000E-002   5.7708714872177269E-023
   3.9250000000000000E-002   5.9964169116769272E-023
   3.9500000000000000E-002   6.2292608887043616E-023
   3.9750000000000001E-002   6.4695911507253158E-023
   4.0000000000000001E-002   6.7175990287548026E-023
   4.0250000000000001E-002   6.9734794980900259E-023
   4.0500000000000001E-002   7.2374312242998064E-023
   4.0750000000000001E-002   7.5096566094931148E-023
   4.1000000000000002E-002   7.7903618388857651E-023
   4.1250000000000002E-002   8.0797569276471584E-023
   4.1500000000000002E-002   8.3780557680389121E-023
   4.1750000000000002E-002   8.6854761768446565E-023
   4.2000000000000003E-002   9.0022399430810381E-023
   4.2250000000000003E-002   9.3285728760033578E-023
   4.2500000000000003E-002   9.6647048533974398E-023
   4.2750000000000003E-002   1.0010869870159378E-022
   4.3000000000000003E-002   1.0367306087163121E-022
   4.3250000000000004E-002   1.0734255880416693E-022
   4.3500000000000004E-002   1.1111965890515869E-022
   4.3750000000000004E-002   1.1500687072360828E-022
   4.3999999999999997E-002   1.1900674745196019E-022
   4.4249999999999998E-002   1.2312188642908966E-022
   4.4499999999999998E-002   1.2735492964628314E-022
   4.4749999999999998E-002   1.3170856425623054E-022
   4.4999999999999998E-002   1.3618552308462986E-022
   4.5249999999999999E-002   1.4078858514490851E-022
   4.5499999999999999E-002   1.4552057615569782E-022
   4.5749999999999999E-002   1.5038436906132626E-022
   4.5999999999999999E-002   1.5538288455493075E-022
   4.6249999999999999E-002   1.6051909160485391E-022
   4.6500000000000000E-002   1.6579600798350638E-022
   4.6750000000000000E-002   1.7121670079939713E-022
   4.7000000000000000E-002   1.7678428703194332E-022
   4.7250000000000000E-002   1.8250193406916856E-022
   4.7500000000000001E-002   1.8837286024826910E-022
   4.7750000000000001E-002   1.9440033539913609E-022
   4.8000000000000001E-002   2.0058768139067598E-022
   4.8250000000000001E-002   2.0693827268005692E-022
   4.8500000000000001E-002   2.1345553686480610E-022
   4.8750000000000002E-002   2.2014295523785588E-022
   4.9000000000000002E-002   2.2700406334544467E-022
   4.9250000000000002E-002   2.3404245154783994E-022
   4.9500000000000002E-002   2.4126176558295526E-022
   4.9750000000000003E-002   2.4866570713317566E-022
   5.0000000000000003E-002   2.5625803439423018E-022
   5.0250000000000003E-002   2.6404256264813113E-022
   5.0500000000000003E-002   2.7202316483792756E-022
   5.0750000000000003E-002   2.8020377214591790E-022
   5.1000000000000004E-002   2.8858837457465261E-022
   5.1250000000000004E-002   2.9718102153068351E-022
   5.1500000000000004E-002   3.0598582241147454E-022
   5.1750000000000004E-002   3.1500694719468342E-022
   5.2000000000000005E-002   3.2424862703097286E-022
   5.2249999999999998E-002   3.3371515483931882E-022
   5.2499999999999998E-002   3.4341088590509333E-022
   5.2749999999999998E-002   3.5334023848143313E-022
   5.2999999999999999E-002   3.6350769439309975E-022
   5.3249999999999999E-002   3.7391779964355554E-022
   5.3499999999999999E-002   3.8457516502460873E-022
   5.3749999999999999E-002   3.9548446672915415E-022
   5.3999999999999999E-002   4.0665044696682353E-022
   5.4250000000000000E-002   4.1807791458221080E-022
   5.4500000000000000E-002   4.2977174567645407E-022
   5.4750000000000000E-002   4.4173688423129789E-022
   5.5000000000000000E-002   4.5397834273618702E-022
   5.5250000000000000E-002   4.6650120281848407E-022
   5.5500000000000001E-002   4.7931061587586757E-022
   5.5750000000000001E-002   4.9241180371256863E-022
   5.6000000000000001E-002   5.0581005917775521E-022
   5.6250000000000001E-002   5.1951074680708079E-022
   5.6500000000000002E-002   5.3351930346715612E-022
   5.6750000000000002E-002   5.4784123900262204E-022
   5.7000000000000002E-002   5.6248213688671302E-022
   5.7250000000000002E-002   5.7744765487385907E-022
   5.7500000000000002E-002   5.9274352565595139E-022
   5.7750000000000003E-002   6.0837555752121600E-022
   5.8000000000000003E-002   6.2434963501530558E-022
   5.8250000000000003E-002   6.4067171960683707E-022
   5.8500000000000003E-002   6.5734785035409265E-022
   5.8750000000000004E-002   6.7438414457569217E-022
   5.9000000000000004E-002   6.9178679852388486E-022
   5.9250000000000004E-002   7.0956208806050130E-022
   5.9500000000000004E-002   7.2771636933609299E-022
   5.9750000000000004E-002   7.4625607947178430E-022
   5.9999999999999998E-002   7.6518773724395029E-022
   6.0249999999999998E-002   7.8451794377216851E-022
   6.0499999999999998E-002   8.0425338320932642E-022
   6.0749999999999998E-002   8.2440082343554291E-022
   6.0999999999999999E-002   8.4496711675405967E-022
   6.1249999999999999E-002   8.6595920059063560E-022
   6.1499999999999999E-002   8.8738409819579363E-022
   6.1749999999999999E-002   9.0924891934924892E-022
   6.2000000000000000E-002   9.3156086106854648E-022
   6.2250000000000000E-002   9.5432720831882489E-022
   6.2500000000000000E-002   9.7755533472750422E-022
   6.2750000000000000E-002   1.0012527032998760E-021
   6.3000000000000000E-002   1.0254268671390679E-021
   6.3250000000000001E-002   1.0500854701679893E-021
   6.3500000000000001E-002   1.0752362478545359E-021
   6.3750000000000001E-002   1.1008870279399820E-021
   6.4000000000000001E-002   1.1270457311693988E-021
   6.4250000000000002E-002   1.1537203720255388E-021
   6.4500000000000002E-002   1.1809190594662070E-021
   6.4750000000000002E-002   1.2086499976625482E-021
   6.5000000000000002E-002   1.2369214867427607E-021
   6.5250000000000002E-002   1.2657419235371275E-021
   6.5500000000000003E-002   1.2951198023251355E-021
   6.5750000000000003E-002   1.3250637155886744E-021
   6.6000000000000003E-002   1.3555823547638918E-021
   6.6250000000000003E-002   1.3866845109996042E-021
   6.6500000000000004E-002   1.4183790759163875E-021
   6.6750000000000004E-002   1.4506750423690523E-021
   6.7000000000000004E-002   1.4835815052128189E-021
   6.7250000000000004E-002   1.5171076620712571E-021
   6.7500000000000004E-002   1.5512628141075314E-021
   6.7750000000000005E-002   1.5860563667991045E-021
   6.8000000000000005E-002   1.6214978307138903E-021
   6.8250000000000005E-002   1.6575968222917613E-021
   6.8500000000000005E-002   1.6943630646250492E-021
   6.8750000000000006E-002   1.7318063882469479E-021
   6.9000000000000006E-002   1.7699367319180639E-021
   6.9250000000000006E-002   1.8087641434185332E-021
   6.9500000000000006E-002   1.8482987803431841E-021
   6.9750000000000006E-002   1.8885509108973848E-021
   7.0000000000000007E-002   1.9295309146983611E-021
   7.0250000000000007E-002   1.9712492835778001E-021
   7.0500000000000007E-002   2.0137166223872684E-021
   7.0750000000000007E-002   2.0569436498079039E-021
   7.1000000000000008E-002   2.1009411991618051E-021
   7.1250000000000008E-002   2.1457202192261454E-021
   7.1500000000000008E-002   2.1912917750511761E-021
   7.1750000000000008E-002   2.2376670487799372E-021
   7.2000000000000008E-002   2.2848573404726961E-021
   7.2249999999999995E-002   2.3328740689312322E-021
   7.2499999999999995E-002   2.3817287725297309E-021
   7.2749999999999995E-002   2.4314331100449589E-021
   7.2999999999999995E-002   2.4819988614926254E-021
   7.3249999999999996E-002   2.5334379289635947E-021
   7.3499999999999996E-002   2.5857623374652195E-021
   7.3749999999999996E-002   2.6389842357644998E-021
   7.3999999999999996E-002   2.6931158972348548E-021
   7.4249999999999997E-002   2.7481697207042163E-021
   7.4499999999999997E-002   2.8041582313083879E-021
   7.4749999999999997E-002   2.8610940813450388E-021
   7.4999999999999997E-002   2.9189900511320147E-021
   7.5249999999999997E-002   2.9778590498678578E-021
   7.5499999999999998E-002   3.0377141164955381E-021
   7.5749999999999998E-002   3.0985684205688867E-021
   7.5999999999999998E-002   3.1604352631214874E-021
   7.6249999999999998E-002   3.2233280775404190E-021
   7.6499999999999999E-002   3.2872604304393635E-021
   7.6749999999999999E-002   3.3522460225382854E-021
   7.6999999999999999E-002   3.4182986895433075E-021
   7.7249999999999999E-002   3.4854324030314933E-021
   7.7499999999999999E-002   3.5536612713361013E-021
   7.7750000000000000E-002   3.6229995404375779E-021
   7.8000000000000000E-002   3.6934615948554351E-021
   7.8250000000000000E-002   3.7650619585434913E-021
   7.8500000000000000E-002   3.8378152957875258E-021
   7.8750000000000001E-002   3.9117364121084999E-021
   7.9000000000000001E-002   3.9868402551635070E-021
   7.9250000000000001E-002   4.0631419156551427E-021
   7.9500000000000001E-002   4.1406566282403523E-021
   7.9750000000000001E-002   4.2193997724420731E-021
   8.0000000000000002E-002   4.2993868735671280E-021
   8.0250000000000002E-002   4.3806336036221605E-021
   8.0500000000000002E-002   4.4631557822371588E-021
   8.0750000000000002E-002   4.5469693775872758E-021
   8.1000000000000003E-002   4.6320905073213130E-021
   8.1250000000000003E-002   4.7185354394930071E-021
   8.1500000000000003E-002   4.8063205934899683E-021
   8.1750000000000003E-002   4.8954625409738679E-021
   8.2000000000000003E-002   4.9859780068157402E-021
   8.2250000000000004E-002   5.0778838700389231E-021
   8.2500000000000004E-002   5.1711971647639006E-021
   8.2750000000000004E-002   5.2659350811539558E-021
   8.3000000000000004E-002   5.3621149663668157E-021
   8.3250000000000005E-002   5.4597543255067511E-021
   8.3500000000000005E-002   5.5588708225808380E-021
   8.3750000000000005E-002   5.6594822814586519E-021
   8.4000000000000005E-002   5.7616066868316879E-021
   8.4250000000000005E-002   5.8652621851805932E-021
   8.4500000000000006E-002   5.9704670857399220E-021
   8.4750000000000006E-002   6.0772398614709300E-021
   8.5000000000000006E-002   6.1855991500343431E-021
   8.5250000000000006E-002   6.2955637547644105E-021
   8.5500000000000007E-002   6.4071526456502078E-021
   8.5750000000000007E-002   6.5203849603169916E-021
   8.6000000000000007E-002   6.6352800050095382E-021
   8.6250000000000007E-002   6.7518572555829710E-021
   8.6500000000000007E-002   6.8701363584889325E-021
   8.6750000000000008E-002   6.9901371317723551E-021
   8.7000000000000008E-002   7.1118795660682868E-021
   8.7250000000000008E-002   7.2353838255958869E-021
   8.7500000000000008E-002   7.3606702491684935E-021
   8.7750000000000009E-002   7.4877593511903598E-021
   8.7999999999999995E-002   7.6166718226712366E-021
   8.8249999999999995E-002   7.7474285322330383E-021
   8.8499999999999995E-002   7.8800505271250108E-021
   8.8749999999999996E-002   8.0145590342399382E-021
   8.8999999999999996E-002   8.1509754611326705E-021
   8.9249999999999996E-002   8.2893213970449532E-021
   8.9499999999999996E-002   8.4296186139273530E-021
   8.9749999999999996E-002   8.5718890674686251E-021
   8.9999999999999997E-002   8.7161548981299161E-021
   9.0249999999999997E-002   8.8624384321715729E-021
   9.0499999999999997E-002   9.0107621826953936E-021
   9.0749999999999997E-002   9.1611488506827987E-021
   9.0999999999999998E-002   9.3136213260377132E-021
   9.1249999999999998E-002   9.4682026886305817E-021
   9.1499999999999998E-002   9.6249162093469559E-021
   9.1749999999999998E-002   9.7837853511394240E-021
   9.1999999999999998E-002   9.9448337700814239E-021
   9.2249999999999999E-002   1.0108085316423529E-020
   9.2499999999999999E-002   1.0273564035654924E-020
   9.2749999999999999E-002   1.0441294169563355E-020
   9.2999999999999999E-002   1.0611300157301899E-020
   9.3250000000000000E-002   1.0783606636459140E-020
   9.3500000000000000E-002   1.0958238444128591E-020
   9.3750000000000000E-002   1.1135220617982445E-020
   9.4000000000000000E-002   1.1314578397349522E-020
   9.4250000000000000E-002   1.1496337224296160E-020
   9.4500000000000001E-002   1.1680522744708459E-020
   9.4750000000000001E-002   1.1867160809376153E-020
   9.5000000000000001E-002   1.2056277475085702E-020
   9.5250000000000001E-002   1.2247899005704956E-020
   9.5500000000000002E-002   1.2442051873284932E-020
   9.5750000000000002E-002   1.2638762759152845E-020
   9.6000000000000002E-002   1.2838058555011717E-020
   9.6250000000000002E-002   1.3039966364049251E-020
   9.6500000000000002E-002   1.3244513502033151E-020
   9.6750000000000003E-002   1.3451727498431913E-020
   9.7000000000000003E-002   1.3661636097517604E-020
   9.7250000000000003E-002   1.3874267259486171E-020
   9.7500000000000003E-002   1.4089649161569913E-020
   9.7750000000000004E-002   1.4307810199162678E-020
   9.8000000000000004E-002   1.4528778986940734E-020
   9.8250000000000004E-002   1.4752584359988077E-020
   9.8500000000000004E-002   1.4979255374926521E-020
   9.8750000000000004E-002   1.5208821311050563E-020
   9.9000000000000005E-002   1.5441311671454390E-020
   9.9250000000000005E-002   1.5676756184180949E-020
   9.9500000000000005E-002   1.5915184803348087E-020
   9.9750000000000005E-002   1.6156627710305911E-020
  0.10000000000000001        1.6401115314776719E-020
  0.10025000000000001        1.6648678256002001E-020
  0.10050000000000001        1.6899347403900405E-020
  0.10075000000000001        1.7153153860217518E-020
  0.10100000000000001        1.7410128959686533E-020
  0.10125000000000001        1.7670304271189086E-020
  0.10150000000000001        1.7933711598916944E-020
  0.10175000000000001        1.8200382983541548E-020
  0.10200000000000001        1.8470350703380821E-020
  0.10225000000000001        1.8743647275571753E-020
  0.10250000000000001        1.9020305457248063E-020
  0.10275000000000001        1.9300358246714497E-020
  0.10300000000000001        1.9583838884632328E-020
  0.10325000000000001        1.9870780855199416E-020
  0.10350000000000001        2.0161217887338345E-020
  0.10375000000000001        2.0455183955884550E-020
  0.10400000000000001        2.0752713282784483E-020
  0.10425000000000000        2.1053840338284310E-020
  0.10450000000000000        2.1358599842128558E-020
  0.10475000000000000        2.1667026764767330E-020
  0.10500000000000000        2.1979156328556700E-020
  0.10525000000000000        2.2295024008961651E-020
  0.10550000000000000        2.2614665535773840E-020
  0.10575000000000000        2.2938116894319575E-020
  0.10600000000000000        2.3265414326673385E-020
  0.10625000000000000        2.3596594332884298E-020
  0.10650000000000000        2.3931693672186080E-020
  0.10675000000000000        2.4270749364234845E-020
  0.10700000000000000        2.4613798690323283E-020
  0.10725000000000000        2.4960879194619895E-020
  0.10750000000000000        2.5312028685397336E-020
  0.10775000000000000        2.5667285236268609E-020
  0.10800000000000000        2.6026687187429326E-020
  0.10825000000000000        2.6390273146892128E-020
  0.10850000000000000        2.6758081991742526E-020
  0.10875000000000000        2.7130152869373059E-020
  0.10900000000000000        2.7506525198743124E-020
  0.10925000000000000        2.7887238671629446E-020
  0.10950000000000000        2.8272333253876770E-020
  0.10975000000000000        2.8661849186667896E-020
  0.11000000000000000        2.9055826987775734E-020
  0.11025000000000000        2.9454307452833013E-020
  0.11050000000000000        2.9857331656597265E-020
  0.11075000000000000        3.0264940954220778E-020
  0.11100000000000000        3.0677176982526966E-020
  0.11125000000000000        3.1094081661288816E-020
  0.11150000000000000        3.1515697194498090E-020
  0.11175000000000000        3.1942066071659357E-020
  0.11200000000000000        3.2373231069059963E-020
  0.11225000000000000        3.2809235251077731E-020
  0.11250000000000000        3.3250121971456025E-020
  0.11275000000000000        3.3695934874603262E-020
  0.11300000000000000        3.4146717896884845E-020
  0.11325000000000000        3.4602515267929837E-020
  0.11350000000000000        3.5063371511926331E-020
  0.11375000000000000        3.5529331448930592E-020
  0.11400000000000000        3.6000440196176256E-020
  0.11425000000000000        3.6476743169379957E-020
  0.11450000000000000        3.6958286084057324E-020
  0.11475000000000000        3.7445114956846390E-020
  0.11500000000000000        3.7937276106808188E-020
  0.11525000000000001        3.8434816156778635E-020
  0.11550000000000001        3.8937782034666193E-020
  0.11575000000000001        3.9446220974787690E-020
  0.11600000000000001        3.9960180519217617E-020
  0.11625000000000001        4.0479708519093189E-020
  0.11650000000000001        4.1004853135973044E-020
  0.11675000000000001        4.1535662843166729E-020
  0.11700000000000001        4.2072186427079151E-020
  0.11725000000000001        4.2614472988558848E-020
  0.11750000000000001        4.3162571944241000E-020
  0.11775000000000001        4.3716533027906846E-020
  0.11800000000000001        4.4276406291833980E-020
  0.11825000000000001        4.4842242108139756E-020
  0.11850000000000001        4.5414091170171040E-020
  0.11875000000000001        4.5992004493838691E-020
  0.11900000000000001        4.6576033419003376E-020
  0.11925000000000001        4.7166229610826659E-020
  0.11950000000000001        4.7762645061153469E-020
  0.11975000000000001        4.8365332089890342E-020
  0.12000000000000000        4.8974343346371501E-020
  0.12025000000000000        4.9589731810743418E-020
  0.12050000000000000        5.0211550795357172E-020
  0.12075000000000000        5.0839853946126393E-020
  0.12100000000000000        5.1474695243960707E-020
  0.12125000000000000        5.2116129006113362E-020
  0.12150000000000000        5.2764209887604408E-020
  0.12175000000000000        5.3418992882604523E-020
  0.12200000000000000        5.4080533325836872E-020
  0.12225000000000000        5.4748886893993034E-020
  0.12250000000000000        5.5424109607121503E-020
  0.12275000000000000        5.6106257830042669E-020
  0.12300000000000000        5.6795388273766556E-020
  0.12325000000000000        5.7491557996901704E-020
  0.12350000000000000        5.8194824407075554E-020
  0.12375000000000000        5.8905245262352286E-020
  0.12400000000000000        5.9622878672661733E-020
  0.12425000000000000        6.0347783101218553E-020
  0.12450000000000000        6.1080017365953100E-020
  0.12475000000000000        6.1819640640955762E-020
  0.12500000000000000        6.2566712457889690E-020
  0.12525000000000000        6.3321292707446319E-020
  0.12550000000000000        6.4083441640780635E-020
  0.12575000000000000        6.4853219870951922E-020
  0.12600000000000000        6.5630688374380143E-020
  0.12625000000000000        6.6415908492281669E-020
  0.12650000000000000        6.7208941932128460E-020
  0.12675000000000000        6.8009850769108320E-020
  0.12700000000000000        6.8818697447577071E-020
  0.12725000000000000        6.9635544782517563E-020
  0.12750000000000000        7.0460455961005430E-020
  0.12775000000000000        7.1293494543680089E-020
  0.12800000000000000        7.2134724466214600E-020
  0.12825000000000000        7.2984210040779696E-020
  0.12850000000000000        7.3842015957524486E-020
  0.12875000000000000        7.4708207286053705E-020
  0.12900000000000000        7.5582849476917685E-020
  0.12925000000000000        7.6466008363083464E-020
  0.12950000000000000        7.7357750161423865E-020
  0.12975000000000000        7.8258141474216151E-020
  0.13000000000000000        7.9167249290630682E-020
  0.13025000000000000        8.0085140988219633E-020
  0.13050000000000000        8.1011884334420993E-020
  0.13075000000000001        8.1947547488067262E-020
  0.13100000000000001        8.2892199000880505E-020
  0.13125000000000001        8.3845907818968595E-020
  0.13150000000000001        8.4808743284381060E-020
  0.13175000000000001        8.5780775136542390E-020
  0.13200000000000001        8.6762073513857559E-020
  0.13225000000000001        8.7752708955172677E-020
  0.13250000000000001        8.8752752401300988E-020
  0.13275000000000001        8.9762275196578758E-020
  0.13300000000000001        9.0781349090357639E-020
  0.13325000000000001        9.1810046238558920E-020
  0.13350000000000001        9.2848439205196699E-020
  0.13375000000000001        9.3896600963899497E-020
  0.13400000000000001        9.4954604899495021E-020
  0.13425000000000001        9.6022524809498407E-020
  0.13450000000000001        9.7100434905682870E-020
  0.13475000000000001        9.8188409815642818E-020
  0.13500000000000001        9.9286524584303597E-020
  0.13525000000000001        1.0039485467550866E-019
  0.13550000000000001        1.0151347597356512E-019
  0.13575000000000001        1.0264246478480476E-019
  0.13600000000000001        1.0378189783913848E-019
  0.13625000000000001        1.0493185229163144E-019
  0.13650000000000001        1.0609240572407132E-019
  0.13675000000000001        1.0726363614652106E-019
  0.13700000000000001        1.0844562199891632E-019
  0.13725000000000001        1.0963844215263466E-019
  0.13750000000000001        1.1084217591205672E-019
  0.13775000000000001        1.1205690301618361E-019
  0.13800000000000001        1.1328270364018238E-019
  0.13825000000000001        1.1451965839701397E-019
  0.13850000000000001        1.1576784833898716E-019
  0.13875000000000001        1.1702735495937418E-019
  0.13900000000000001        1.1829826019401390E-019
  0.13925000000000001        1.1958064642288271E-019
  0.13950000000000001        1.2087459647173445E-019
  0.13975000000000001        1.2218019361366458E-019
  0.14000000000000001        1.2349752157074664E-019
  0.14025000000000001        1.2482666451565675E-019
  0.14050000000000001        1.2616770707324132E-019
  0.14075000000000001        1.2752073432217206E-019
  0.14100000000000001        1.2888583179655257E-019
  0.14125000000000001        1.3026308548754650E-019
  0.14150000000000001        1.3165258184500127E-019
  0.14175000000000001        1.3305440777906264E-019
  0.14200000000000002        1.3446865066182539E-019
  0.14225000000000002        1.3589539832896588E-019
  0.14250000000000002        1.3733473908136513E-019
  0.14275000000000002        1.3878676168676872E-019
  0.14300000000000002        1.4025155538141168E-019
  0.14325000000000002        1.4172920987165639E-019
  0.14350000000000002        1.4321981533569213E-019
  0.14375000000000002        1.4472346242512289E-019
  0.14400000000000002        1.4624024226666343E-019
  0.14424999999999999        1.4777024646376996E-019
  0.14449999999999999        1.4931356709832168E-019
  0.14474999999999999        1.5087029673229346E-019
  0.14499999999999999        1.5244052840936600E-019
  0.14524999999999999        1.5402435565667640E-019
  0.14549999999999999        1.5562187248641170E-019
  0.14574999999999999        1.5723317339753494E-019
  0.14599999999999999        1.5885835337745100E-019
  0.14624999999999999        1.6049750790367502E-019
  0.14649999999999999        1.6215073294553632E-019
  0.14674999999999999        1.6381812496582116E-019
  0.14699999999999999        1.6549978092253477E-019
  0.14724999999999999        1.6719579827052476E-019
  0.14749999999999999        1.6890627496320269E-019
  0.14774999999999999        1.7063130945426848E-019
  0.14799999999999999        1.7237100069934830E-019
  0.14824999999999999        1.7412544815776554E-019
  0.14849999999999999        1.7589475179419261E-019
  0.14874999999999999        1.7767901208040677E-019
  0.14899999999999999        1.7947832999697389E-019
  0.14924999999999999        1.8129280703494490E-019
  0.14949999999999999        1.8312254519764705E-019
  0.14974999999999999        1.8496764700230653E-019
  0.14999999999999999        1.8682821548187372E-019
  0.15024999999999999        1.8870435418664271E-019
  0.15049999999999999        1.9059616718608463E-019
  0.15075000000000000        1.9250375907051861E-019
  0.15100000000000000        1.9442723495283991E-019
  0.15125000000000000        1.9636670047030609E-019
  0.15150000000000000        1.9832226178624975E-019
  0.15175000000000000        2.0029402559181536E-019
  0.15200000000000000        2.0228209910772022E-019
  0.15225000000000000        2.0428659008598512E-019
  0.15250000000000000        2.0630760681173203E-019
  0.15275000000000000        2.0834525810488686E-019
  0.15300000000000000        2.1039965332195560E-019
  0.15325000000000000        2.1247090235782982E-019
  0.15350000000000000        2.1455911564745488E-019
  0.15375000000000000        2.1666440416770158E-019
  0.15400000000000000        2.1878687943907881E-019
  0.15425000000000000        2.2092665352748492E-019
  0.15450000000000000        2.2308383904607195E-019
  0.15475000000000000        2.2525854915690584E-019
  0.15500000000000000        2.2745089757285652E-019
  0.15525000000000000        2.2966099855932837E-019
  0.15550000000000000        2.3188896693602507E-019
  0.15575000000000000        2.3413491807882365E-019
  0.15600000000000000        2.3639896792146404E-019
  0.15625000000000000        2.3868123295742684E-019
  0.15650000000000000        2.4098183024168719E-019
  0.15675000000000000        2.4330087739252171E-019
  0.15700000000000000        2.4563849259336633E-019
  0.15725000000000000        2.4799479459451566E-019
  0.15750000000000000        2.5036990271505967E-019
  0.15775000000000000        2.5276393684458524E-019
  0.15800000000000000        2.5517701744507224E-019
  0.15825000000000000        2.5760926555269309E-019
  0.15850000000000000        2.6006080277957868E-019
  0.15875000000000000        2.6253175131572683E-019
  0.15900000000000000        2.6502223393080606E-019
  0.15925000000000000        2.6753237397592003E-019
  0.15950000000000000        2.7006229538556725E-019
  0.15975000000000000        2.7261212267932332E-019
  0.16000000000000000        2.7518198096383506E-019
  0.16025000000000000        2.7777199593454550E-019
  0.16050000000000000        2.8038229387760649E-019
  0.16075000000000000        2.8301300167168775E-019
  0.16100000000000000        2.8566424678985431E-019
  0.16125000000000000        2.8833615730141731E-019
  0.16150000000000000        2.9102886187375671E-019
  0.16175000000000000        2.9374248977424268E-019
  0.16200000000000001        2.9647717087205351E-019
  0.16225000000000001        2.9923303564002400E-019
  0.16250000000000001        3.0201021515658270E-019
  0.16275000000000001        3.0480884110754715E-019
  0.16300000000000001        3.0762904578805705E-019
  0.16325000000000001        3.1047096210442410E-019
  0.16350000000000001        3.1333472357599655E-019
  0.16375000000000001        3.1622046433708569E-019
  0.16400000000000001        3.1912831913879010E-019
  0.16425000000000001        3.2205842335096415E-019
  0.16450000000000001        3.2501091296406264E-019
  0.16475000000000001        3.2798592459098629E-019
  0.16500000000000001        3.3098359546907946E-019
  0.16525000000000001        3.3400406346195988E-019
  0.16550000000000001        3.3704746706146620E-019
  0.16575000000000001        3.4011394538953100E-019
  0.16600000000000001        3.4320363820008458E-019
  0.16625000000000001        3.4631668588100568E-019
  0.16650000000000001        3.4945322945600152E-019
  0.16675000000000001        3.5261341058652874E-019
  0.16700000000000001        3.5579737157375787E-019
  0.16725000000000001        3.5900525536039254E-019
  0.16750000000000001        3.6223720553274417E-019
  0.16775000000000001        3.6549336632252037E-019
  0.16800000000000001        3.6877388260884997E-019
  0.16825000000000001        3.7207889992017665E-019
  0.16850000000000001        3.7540856443618109E-019
  0.16875000000000001        3.7876302298979509E-019
  0.16900000000000001        3.8214242306906370E-019
  0.16925000000000001        3.8554691281910968E-019
  0.16950000000000001        3.8897664104414546E-019
  0.16975000000000001        3.9243175720931144E-019
  0.17000000000000001        3.9591241144276647E-019
  0.17025000000000001        3.9941875453754137E-019
  0.17050000000000001        4.0295093795351280E-019
  0.17075000000000001        4.0650911381943697E-019
  0.17100000000000001        4.1009343493481945E-019
  0.17125000000000001        4.1370405477199218E-019
  0.17150000000000001        4.1734112747795032E-019
  0.17175000000000001        4.2100480787648621E-019
  0.17200000000000001        4.2469525147003676E-019
  0.17225000000000001        4.2841261444168917E-019
  0.17250000000000001        4.3215705365728421E-019
  0.17275000000000001        4.3592872666721924E-019
  0.17300000000000001        4.3972779170853176E-019
  0.17325000000000002        4.4355440770696442E-019
  0.17350000000000002        4.4740873427878282E-019
  0.17375000000000002        4.5129093173298772E-019
  0.17400000000000002        4.5520116107307117E-019
  0.17425000000000002        4.5913958399928661E-019
  0.17450000000000002        4.6310636291042470E-019
  0.17475000000000002        4.6710166090596088E-019
  0.17500000000000002        4.7112564178804980E-019
  0.17525000000000002        4.7517847006345471E-019
  0.17550000000000002        4.7926031094572373E-019
  0.17575000000000002        4.8337133035706404E-019
  0.17599999999999999        4.8751169493035943E-019
  0.17624999999999999        4.9168157201143816E-019
  0.17649999999999999        4.9588112966075322E-019
  0.17674999999999999        5.0011053665565544E-019
  0.17699999999999999        5.0436996249238414E-019
  0.17724999999999999        5.0865957738803622E-019
  0.17749999999999999        5.1297955228267687E-019
  0.17774999999999999        5.1733005884138599E-019
  0.17799999999999999        5.2171126945626091E-019
  0.17824999999999999        5.2612335724849030E-019
  0.17849999999999999        5.3056649607038375E-019
  0.17874999999999999        5.3504086050753531E-019
  0.17899999999999999        5.3954662588066918E-019
  0.17924999999999999        5.4408396824795593E-019
  0.17949999999999999        5.4865306440684418E-019
  0.17974999999999999        5.5325409189635810E-019
  0.17999999999999999        5.5788722899893207E-019
  0.18024999999999999        5.6255265474266279E-019
  0.18049999999999999        5.6725054890329409E-019
  0.18074999999999999        5.7198109200637141E-019
  0.18099999999999999        5.7674446532921416E-019
  0.18124999999999999        5.8154085090311720E-019
  0.18149999999999999        5.8637043151535085E-019
  0.18174999999999999        5.9123339071130533E-019
  0.18200000000000000        5.9612991279658653E-019
  0.18225000000000000        6.0106018283901188E-019
  0.18250000000000000        6.0602438667092297E-019
  0.18275000000000000        6.1102271089104969E-019
  0.18300000000000000        6.1605534286673013E-019
  0.18325000000000000        6.2112247073608663E-019
  0.18350000000000000        6.2622428341001838E-019
  0.18375000000000000        6.3136097057432154E-019
  0.18400000000000000        6.3653272269186168E-019
  0.18425000000000000        6.4173973100474292E-019
  0.18450000000000000        6.4698218753629823E-019
  0.18475000000000000        6.5226028509326213E-019
  0.18500000000000000        6.5757421726803677E-019
  0.18525000000000000        6.6292417844050623E-019
  0.18550000000000000        6.6831036378059033E-019
  0.18575000000000000        6.7373296925002097E-019
  0.18600000000000000        6.7919219160462893E-019
  0.18625000000000000        6.8468822839656336E-019
  0.18650000000000000        6.9022127797625984E-019
  0.18675000000000000        6.9579153949474579E-019
  0.18700000000000000        7.0139921290572699E-019
  0.18725000000000000        7.0704449896770214E-019
  0.18750000000000000        7.1272759924628073E-019
  0.18775000000000000        7.1844871611599846E-019
  0.18800000000000000        7.2420805276299709E-019
  0.18825000000000000        7.3000581318667320E-019
  0.18850000000000000        7.3584220220221666E-019
  0.18875000000000000        7.4171742544261383E-019
  0.18900000000000000        7.4763168936075764E-019
  0.18925000000000000        7.5358520123185276E-019
  0.18950000000000000        7.5957816915540677E-019
  0.18975000000000000        7.6561080205746119E-019
  0.19000000000000000        7.7168330969281975E-019
  0.19025000000000000        7.7779590264711445E-019
  0.19050000000000000        7.8394879233928867E-019
  0.19075000000000000        7.9014219102334656E-019
  0.19100000000000000        7.9637631179097617E-019
  0.19125000000000000        8.0265136857350961E-019
  0.19150000000000000        8.0896757614416675E-019
  0.19175000000000000        8.1532515012034720E-019
  0.19200000000000000        8.2172430696570655E-019
  0.19225000000000000        8.2816526399252784E-019
  0.19250000000000000        8.3464823936374461E-019
  0.19275000000000000        8.4117345209530366E-019
  0.19300000000000000        8.4774112205842115E-019
  0.19325000000000001        8.5435146998163298E-019
  0.19350000000000001        8.6100471745314603E-019
  0.19375000000000001        8.6770108692309277E-019
  0.19400000000000001        8.7444080170564795E-019
  0.19425000000000001        8.8122408598137283E-019
  0.19450000000000001        8.8805116479937802E-019
  0.19475000000000001        8.9492226407965807E-019
  0.19500000000000001        9.0183761061518227E-019
  0.19525000000000001        9.0879743207430553E-019
  0.19550000000000001        9.1580195700302905E-019
  0.19575000000000001        9.2285141482693565E-019
  0.19600000000000001        9.2994603585393098E-019
  0.19625000000000001        9.3708605127611455E-019
  0.19650000000000001        9.4427169317221720E-019
  0.19675000000000001        9.5150319450988463E-019
  0.19700000000000001        9.5878078914776593E-019
  0.19725000000000001        9.6610471183805348E-019
  0.19750000000000001        9.7347519822849458E-019
  0.19775000000000001        9.8089248486482985E-019
  0.19800000000000001        9.8835680919308437E-019
  0.19825000000000001        9.9586840956171984E-019
  0.19850000000000001        1.0034275252239721E-018
  0.19875000000000001        1.0110343963402656E-018
  0.19900000000000001        1.0186892639803022E-018
  0.19925000000000001        1.0263923701255284E-018
  0.19950000000000001        1.0341439576712392E-018
  0.19975000000000001        1.0419442704290773E-018
  0.20000000000000001        1.0497935531292830E-018
  0.20025000000000001        1.0576920514228884E-018
  0.20050000000000001        1.0656400118841934E-018
  0.20075000000000001        1.0736376820128272E-018
  0.20100000000000001        1.0816853102364246E-018
  0.20125000000000001        1.0897831459125791E-018
  0.20150000000000001        1.0979314393314046E-018
  0.20175000000000001        1.1061304417178206E-018
  0.20200000000000001        1.1143804052337103E-018
  0.20225000000000001        1.1226815829804777E-018
  0.20250000000000001        1.1310342290012120E-018
  0.20275000000000001        1.1394385982831049E-018
  0.20300000000000001        1.1478949467598201E-018
  0.20325000000000001        1.1564035313136652E-018
  0.20350000000000001        1.1649646097781973E-018
  0.20375000000000001        1.1735784409402720E-018
  0.20400000000000001        1.1822452845426379E-018
  0.20425000000000001        1.1909654012861704E-018
  0.20450000000000002        1.1997390528321812E-018
  0.20475000000000002        1.2085665018050282E-018
  0.20500000000000002        1.2174480117940470E-018
  0.20525000000000002        1.2263838473562771E-018
  0.20550000000000002        1.2353742740188209E-018
  0.20575000000000002        1.2444195582808037E-018
  0.20600000000000002        1.2535199676163593E-018
  0.20625000000000002        1.2626757704764929E-018
  0.20650000000000002        1.2718872362916709E-018
  0.20675000000000002        1.2811546354742686E-018
  0.20700000000000002        1.2904782394207222E-018
  0.20725000000000002        1.2998583205142865E-018
  0.20750000000000002        1.3092951521269608E-018
  0.20775000000000002        1.3187890086222476E-018
  0.20800000000000002        1.3283401653573712E-018
  0.20824999999999999        1.3379488986857444E-018
  0.20849999999999999        1.3476154859593741E-018
  0.20874999999999999        1.3573402055311744E-018
  0.20899999999999999        1.3671233367574510E-018
  0.20924999999999999        1.3769651600003560E-018
  0.20949999999999999        1.3868659566301680E-018
  0.20974999999999999        1.3968260090278286E-018
  0.20999999999999999        1.4068456005872866E-018
  0.21024999999999999        1.4169250157179203E-018
  0.21049999999999999        1.4270645398470604E-018
  0.21074999999999999        1.4372644594222660E-018
  0.21099999999999999        1.4475250619138946E-018
  0.21124999999999999        1.4578466358174177E-018
  0.21149999999999999        1.4682294706558966E-018
  0.21174999999999999        1.4786738569825370E-018
  0.21199999999999999        1.4891800863828700E-018
  0.21224999999999999        1.4997484514775505E-018
  0.21249999999999999        1.5103792459243669E-018
  0.21274999999999999        1.5210727644211446E-018
  0.21299999999999999        1.5318293027078648E-018
  0.21325000000000000        1.5426491575692808E-018
  0.21350000000000000        1.5535326268373228E-018
  0.21375000000000000        1.5644800093935453E-018
  0.21400000000000000        1.5754916051717012E-018
  0.21425000000000000        1.5865677151600600E-018
  0.21450000000000000        1.5977086414040578E-018
  0.21475000000000000        1.6089146870084041E-018
  0.21500000000000000        1.6201861561400511E-018
  0.21525000000000000        1.6315233540303764E-018
  0.21550000000000000        1.6429265869776677E-018
  0.21575000000000000        1.6543961623497023E-018
  0.21600000000000000        1.6659323885862535E-018
  0.21625000000000000        1.6775355752012894E-018
  0.21650000000000000        1.6892060327860326E-018
  0.21675000000000000        1.7009440730108756E-018
  0.21700000000000000        1.7127500086282151E-018
  0.21725000000000000        1.7246241534749409E-018
  0.21750000000000000        1.7365668224746279E-018
  0.21775000000000000        1.7485783316405812E-018
  0.21800000000000000        1.7606589980778069E-018
  0.21825000000000000        1.7728091399859046E-018
  0.21850000000000000        1.7850290766614626E-018
  0.21875000000000000        1.7973191285003447E-018
  0.21900000000000000        1.8096796170007996E-018
  0.21925000000000000        1.8221108647652462E-018
  0.21950000000000000        1.8346131955034506E-018
  0.21975000000000000        1.8471869340345728E-018
  0.22000000000000000        1.8598324062899715E-018
  0.22025000000000000        1.8725499393158334E-018
  0.22050000000000000        1.8853398612753166E-018
  0.22075000000000000        1.8982025014514101E-018
  0.22100000000000000        1.9111381902495164E-018
  0.22125000000000000        1.9241472591996725E-018
  0.22150000000000000        1.9372300409596245E-018
  0.22175000000000000        1.9503868693166937E-018
  0.22200000000000000        1.9636180791910236E-018
  0.22225000000000000        1.9769240066376460E-018
  0.22250000000000000        1.9903049888492577E-018
  0.22275000000000000        2.0037613641588223E-018
  0.22300000000000000        2.0172934720420363E-018
  0.22325000000000000        2.0309016531199372E-018
  0.22350000000000000        2.0445862491613889E-018
  0.22375000000000000        2.0583476030858659E-018
  0.22400000000000000        2.0721860589659166E-018
  0.22425000000000000        2.0861019620296396E-018
  0.22450000000000001        2.1000956586634775E-018
  0.22475000000000001        2.1141674964146530E-018
  0.22500000000000001        2.1283178239937742E-018
  0.22525000000000001        2.1425469912775539E-018
  0.22550000000000001        2.1568553493112123E-018
  0.22575000000000001        2.1712432503113305E-018
  0.22600000000000001        2.1857110476682355E-018
  0.22625000000000001        2.2002590959485708E-018
  0.22650000000000001        2.2148877508982343E-018
  0.22675000000000001        2.2295973694445676E-018
  0.22700000000000001        2.2443883096992485E-018
  0.22725000000000001        2.2592609309609479E-018
  0.22750000000000001        2.2742155937174990E-018
  0.22775000000000001        2.2892526596494438E-018
  0.22800000000000001        2.3043724916314163E-018
  0.22825000000000001        2.3195754537358651E-018
  0.22850000000000001        2.3348619112352380E-018
  0.22875000000000001        2.3502322306043032E-018
  0.22900000000000001        2.3656867795235423E-018
  0.22925000000000001        2.3812259268810332E-018
  0.22950000000000001        2.3968500427755678E-018
  0.22975000000000001        2.4125594985192136E-018
  0.23000000000000001        2.4283546666397318E-018
  0.23025000000000001        2.4442359208837456E-018
  0.23050000000000001        2.4602036362185348E-018
  0.23075000000000001        2.4762581888356201E-018
  0.23100000000000001        2.4923999561529780E-018
  0.23125000000000001        2.5086293168175882E-018
  0.23150000000000001        2.5249466507084266E-018
  0.23175000000000001        2.5413523389387989E-018
  0.23200000000000001        2.5578467638594386E-018
  0.23225000000000001        2.5744303090605540E-018
  0.23250000000000001        2.5911033593752533E-018
  0.23275000000000001        2.6078663008817369E-018
  0.23300000000000001        2.6247195209059076E-018
  0.23325000000000001        2.6416634080245678E-018
  0.23350000000000001        2.6586983520675186E-018
  0.23375000000000001        2.6758247441206966E-018
  0.23400000000000001        2.6930429765286421E-018
  0.23425000000000001        2.7103534428972944E-018
  0.23450000000000001        2.7277565380966010E-018
  0.23475000000000001        2.7452526582632697E-018
  0.23500000000000001        2.7628422008036243E-018
  0.23525000000000001        2.7805255643959335E-018
  0.23550000000000001        2.7983031489935393E-018
  0.23575000000000002        2.8161753558275453E-018
  0.23600000000000002        2.8341425874090287E-018
  0.23625000000000002        2.8522052475324692E-018
  0.23650000000000002        2.8703637412779044E-018
  0.23675000000000002        2.8886184750138385E-018
  0.23700000000000002        2.9069698564003426E-018
  0.23725000000000002        2.9254182943912163E-018
  0.23750000000000002        2.9439641992369984E-018
  0.23775000000000002        2.9626079824877720E-018
  0.23800000000000002        2.9813500569956629E-018
  0.23825000000000002        3.0001908369180403E-018
  0.23850000000000002        3.0191307377194976E-018
  0.23875000000000002        3.0381701761755465E-018
  0.23900000000000002        3.0573095703746830E-018
  0.23925000000000002        3.0765493397212372E-018
  0.23950000000000002        3.0958899049385721E-018
  0.23975000000000002        3.1153316880710888E-018
  0.23999999999999999        3.1348751124879463E-018
  0.24024999999999999        3.1545206028850304E-018
  0.24049999999999999        3.1742685852878321E-018
  0.24074999999999999        3.1941194870548491E-018
  0.24099999999999999        3.2140737368795713E-018
  0.24124999999999999        3.2341317647937280E-018
  0.24149999999999999        3.2542940021700041E-018
  0.24174999999999999        3.2745608817245176E-018
  0.24199999999999999        3.2949328375203706E-018
  0.24224999999999999        3.3154103049693225E-018
  0.24249999999999999        3.3359937208356577E-018
  0.24274999999999999        3.3566835232383158E-018
  0.24299999999999999        3.3774801516537678E-018
  0.24324999999999999        3.3983840469194730E-018
  0.24349999999999999        3.4193956512354823E-018
  0.24374999999999999        3.4405154081684282E-018
  0.24399999999999999        3.4617437626537049E-018
  0.24424999999999999        3.4830811609980956E-018
  0.24450000000000000        3.5045280508835294E-018
  0.24475000000000000        3.5260848813687679E-018
  0.24500000000000000        3.5477521028930215E-018
  0.24525000000000000        3.5695301672783041E-018
  0.24550000000000000        3.5914195277325720E-018
  0.24575000000000000        3.6134206388524927E-018
  0.24600000000000000        3.6355339566260470E-018
  0.24625000000000000        3.6577599384358176E-018
  0.24650000000000000        3.6800990430612936E-018
  0.24675000000000000        3.7025517306821476E-018
  0.24700000000000000        3.7251184628810104E-018
  0.24725000000000000        3.7477997026458893E-018
  0.24750000000000000        3.7705959143736710E-018
  0.24775000000000000        3.7935075638725931E-018
  0.24800000000000000        3.8165351183651425E-018
  0.24825000000000000        3.8396790464909550E-018
  0.24850000000000000        3.8629398183097113E-018
  0.24875000000000000        3.8863179053039663E-018
  0.24900000000000000        3.9098137803819428E-018
  0.24925000000000000        3.9334279178806271E-018
  0.24950000000000000        3.9571607935685685E-018
  0.24975000000000000        3.9810128846483107E-018
  0.25000000000000000        4.0049846697599183E-018